Counter,Time(s),Temperature Voltage(V),Magnet Current(A),Field Coil Current(mA),SQUID Voltage(uV),Mod Current(uA),Pickup Loop Current(uA),
0,0.00600004196167,+1.57113540E+00,,,-36.3736,-0.0119104052574,-54.8405024631
1,3.91499996185,+1.57114280E+00,,,-36.15336,-2.12692727273,-54.8422955665
2,6.4430000782,+1.57113540E+00,,,-35.80742,-4.24873745893,-54.839862069
3,8.97000002861,+1.57114280E+00,,,-35.51839,-6.36123964951,-54.8466502463
4,11.4979999065,+1.57113540E+00,,,-35.23723,-8.49869189485,-54.8429359606
5,14.0260000229,+1.57114160E+00,,,-34.93977,-10.6476407448,-54.8428078818
6,16.5329999924,+1.57113540E+00,,,-34.7632,-12.7475892662,-54.8454975369
7,19.0399999619,+1.57113660E+00,,,-34.55378,-14.8916013143,-54.8416551724
8,21.5450000763,+1.57113410E+00,,,-34.36839,-16.9913296824,-54.8428078818
9,24.0520000458,+1.57115150E+00,,,-34.0501,-19.0885728368,-54.8351231527
10,26.5569999218,+1.57113660E+00,,,-33.75251,-21.2033899233,-54.8365320197
11,29.0629999638,+1.57113040E+00,,,-33.5698,-23.3003723987,-54.8393497537
12,31.5690000057,+1.57113790E+00,,,-33.32911,-25.4955607886,-54.8390935961
13,34.0759999752,+1.57115650E+00,,,-33.13049,-27.6527338445,-54.8396059113
14,36.5820000172,+1.57113790E+00,,,-32.94084,-29.7740876232,-54.842679803
15,39.0889999866,+1.57114780E+00,,,-32.73354,-31.8605662651,-54.8465221675
16,41.5950000286,+1.57114160E+00,,,-32.54095,-33.9839890471,-54.847546798
17,44.1019999981,+1.57113170E+00,,,-32.41088,-36.0704961665,-54.8470344828
18,46.6070001125,+1.57112180E+00,,,-32.30416,-38.1883044907,-54.8472906404
19,49.114000082,+1.57113170E+00,,,-32.11009,-40.2737535597,-54.8422955665
20,51.6210000515,+1.57112420E+00,,,-31.93416,-42.4902913472,-54.8469064039
21,54.1270000935,+1.57112550E+00,,,-31.7883,-44.5757272727,-54.8480689655
22,56.632999897,+1.57112180E+00,,,-31.57608,-46.6938838992,-54.84408867
23,59.138999939,+1.57113790E+00,,,-31.61388,-48.7813997809,-54.8420394089
24,61.6459999084,+1.57113410E+00,,,-31.58662,-50.9024479737,-54.8467783251
25,64.1519999504,+1.57114650E+00,,,-31.65367,-52.9895290252,-54.8421674877
26,66.6589999199,+1.57113290E+00,,,-31.79351,-55.1063515882,-54.8413990148
27,69.1659998894,+1.57113790E+00,,,-31.87019,-57.3659485214,-54.843320197
28,71.6719999313,+1.57113540E+00,,,-31.96448,-59.4237404162,-54.8499901478
29,74.1779999733,+1.57113170E+00,,,-32.16136,-61.5403318729,-54.8392216749
30,76.6830000877,+1.57112180E+00,,,-32.37306,-63.6588170865,-54.8401182266
31,79.1900000572,+1.57113790E+00,,,-32.53586,-65.7819452355,-54.842679803
32,81.6970000267,+1.57114900E+00,,,-32.79032,-67.832728368,-54.8444729064
33,84.2030000687,+1.57113540E+00,,,-33.00469,-69.946803943,-54.8449852217
34,86.7100000381,+1.57114030E+00,,,-33.19355,-72.0605279299,-54.8403743842
35,89.2160000801,+1.57114160E+00,,,-33.45053,-74.2372497262,-54.8421674877
36,91.7219998837,+1.57114030E+00,,,-33.64781,-76.3529386637,-54.8390935961
37,94.2279999256,+1.57115270E+00,,,-33.79966,-78.4659112815,-54.8416551724
38,96.7349998951,+1.57113040E+00,,,-33.98439,-80.5826407448,-54.8435763547
39,99.2409999371,+1.57114280E+00,,,-34.29719,-82.6366341731,-54.8371724138
40,101.746999979,+1.57113410E+00,,,-34.57969,-84.7528784228,-54.839862069
41,104.253999949,+1.57112920E+00,,,-34.95393,-86.8696078861,-54.8397339901
42,106.760999918,+1.57114900E+00,,,-35.27529,-88.7325815991,-54.8406305419
43,109.266000032,+1.57113540E+00,,,-35.6016,-91.363694414,-54.8428078818
44,111.772000074,+1.57113540E+00,,,-35.78096,-93.0975312158,-54.8408866995
45,114.279000044,+1.57115270E+00,,,-36.05491,-95.7313614458,-54.8425517241
46,116.786000013,+1.57113910E+00,,,-36.25285,-97.468041621,-54.838453202
47,119.292000055,+1.57113540E+00,,,-36.40312,-99.2715410734,-54.8392216749
48,121.799999952,+1.57112920E+00,,,-36.69456,-101.841634173,-54.841270936
49,124.305000067,+1.57114650E+00,,,-36.92349,-103.638657174,-54.8392216749
50,126.812000036,+1.57112050E+00,,,-37.11542,-106.276274918,-54.838453202
51,129.318000078,+1.57114280E+00,,,-37.23202,-108.010224535,-54.8375566502
52,131.82400012,+1.57113290E+00,,,-37.33726,-109.748127054,-54.8451133005
53,134.289000034,+1.57115150E+00,,,-37.59839,-113.204008762,-54.8393497537
54,136.753999949,+1.57113910E+00,,,-37.76882,-115.018028478,-54.843320197
55,139.220999956,+1.57113170E+00,,,-37.93337,-117.600635268,-54.8381970443
56,141.686000109,+1.57112670E+00,,,-38.04638,-119.416243154,-54.8428078818
57,144.150000095,+1.57113040E+00,,,-38.31312,-121.999003286,-54.8373004926
58,146.615999937,+1.57113040E+00,,,-38.39179,-123.80837897,-54.838453202
59,149.079999924,+1.57113410E+00,,,-38.42384,-125.615147864,-54.8438325123
60,151.545000076,+1.57114280E+00,,,-38.56382,-128.20456736,-54.8378128079
61,154.00999999,+1.57112920E+00,,,-38.7086,-130.013943045,-54.8369162562
62,156.476000071,+1.57113910E+00,,,-38.76751,-132.615224535,-54.8416551724
63,158.940999985,+1.57112790E+00,,,-38.79395,-134.419101862,-54.84191133
64,161.405999899,+1.57114410E+00,,,-38.74333,-136.101949617,-54.8393497537
65,163.871999979,+1.57113410E+00,,,-38.72864,-138.82196057,-54.8416551724
66,166.336999893,+1.57115030E+00,,,-38.69672,-140.492070099,-54.8444729064
67,168.802000046,+1.57112920E+00,,,-38.51386,-143.212070099,-54.8392216749
68,171.267999887,+1.57114030E+00,,,-38.4328,-144.889123768,-54.8385812808
69,173.733999968,+1.57113170E+00,,,-38.3186,-146.698499452,-54.8375566502
70,176.19900012,+1.57113170E+00,,,-38.14657,-149.287776561,-54.8259014778
71,178.664000034,+1.57114280E+00,,,-38.02823,-151.094403067,-54.8430640394
72,181.130000114,+1.57113040E+00,,,-37.8156,-153.687590361,-54.8352512315
73,183.595000029,+1.57112180E+00,,,-37.72475,-155.498411829,-54.8337142857
74,186.061000109,+1.57113660E+00,,,-37.51546,-158.211029573,-54.8365320197
75,188.525000095,+1.57113290E+00,,,-37.39031,-159.88475356,-54.8479408867
76,190.992000103,+1.57114530E+00,,,-37.29508,-161.697020811,-54.8367881773
77,193.457000017,+1.57113790E+00,,,-37.06455,-164.283253012,-54.8362758621
78,195.921999931,+1.57113540E+00,,,-36.93286,-166.102475356,-54.8337142857
79,198.388000011,+1.57112550E+00,,,-36.65169,-168.689857612,-54.8358916256
80,200.852999926,+1.57114030E+00,,,-36.46191,-170.502135816,-54.8360197044
81,203.318000078,+1.57112550E+00,,,-36.35317,-172.185728368,-54.8361477833
82,205.78399992,+1.57112920E+00,,,-36.06896,-174.893997809,-54.8351231527
83,208.25,+1.57113170E+00,,,-35.80717,-176.70381161,-54.8408866995
84,210.714999914,+1.57112300E+00,,,-35.35332,-179.287294633,-54.8349950739
85,213.178999901,+1.57113660E+00,,,-35.05373,-181.103910186,-54.8330738916
86,215.644999981,+1.57113410E+00,,,-34.70298,-183.680865279,-54.8362758621
87,218.109999895,+1.57112180E+00,,,-34.43266,-185.494293538,-54.8357635468
88,220.575999975,+1.57113910E+00,,,-34.1511,-187.17973713,-54.8340985222
89,223.040999889,+1.57114280E+00,,,-33.81317,-189.889759036,-54.8330738916
90,225.506999969,+1.57113790E+00,,,-33.65316,-191.572168675,-54.8293596059
91,227.971999884,+1.57112550E+00,,,-33.37494,-194.282464403,-54.8378128079
92,230.437999964,+1.57114280E+00,,,-33.26676,-195.968368018,-54.835635468
93,232.903000116,+1.57112790E+00,,,-33.10823,-197.780054765,-54.8364039409
94,235.368000031,+1.57113040E+00,,,-32.95007,-200.362814896,-54.8335862069
95,237.834000111,+1.57113290E+00,,,-32.85726,-202.175235487,-54.8302561576
96,240.299999952,+1.57114030E+00,,,-32.67681,-204.755531216,-54.8385812808
97,242.766000032,+1.57114410E+00,,,-32.58344,-206.564008762,-54.8393497537
98,245.230999947,+1.57114410E+00,,,-32.54338,-208.373242059,-54.831408867
99,247.696000099,+1.57113790E+00,,,-32.49797,-210.957009858,-54.8308965517
100,250.160000086,+1.57115520E+00,,,-32.438,-212.76769989,-54.8348669951
101,252.625,+1.57114160E+00,,,-32.55405,-215.35754655,-54.8353793103
102,255.089999914,+1.57112550E+00,,,-32.63446,-217.163592552,-54.8307684729
103,257.553999901,+1.57113910E+00,,,-32.81705,-219.752595838,-54.8310246305
104,260.020999908,+1.57113540E+00,,,-33.05746,-222.097634173,-54.8352512315
105,262.486000061,+1.57114780E+00,,,-33.21427,-223.901653888,-54.8306403941
106,264.950999975,+1.57112920E+00,,,-33.42691,-226.470219058,-54.8303842365
107,267.417000055,+1.57114530E+00,,,-33.53041,-228.284808324,-54.8325615764
108,269.881999969,+1.57112050E+00,,,-33.77284,-230.856122673,-54.8352512315
109,272.34800005,+1.57113910E+00,,,-34.00832,-232.664194962,-54.8337142857
110,274.812999964,+1.57113540E+00,,,-34.19223,-234.467491785,-54.8297438424
111,277.278000116,+1.57112920E+00,,,-34.53724,-237.051982475,-54.8343546798
112,279.743999958,+1.57113410E+00,,,-34.72102,-238.858324206,-54.8316650246
113,282.209000111,+1.57114900E+00,,,-34.99028,-241.440361446,-54.8332019704
114,284.674999952,+1.57112550E+00,,,-35.21867,-243.242508215,-54.8302561576
115,287.140000105,+1.57114650E+00,,,-35.46176,-245.052026287,-54.834226601
116,289.605999947,+1.57113790E+00,,,-35.82599,-247.621467689,-54.8316650246
117,292.069999933,+1.57113170E+00,,,-36.08312,-249.437787514,-54.8291034483
118,294.536000013,+1.57113910E+00,,,-36.43587,-252.012267251,-54.8321773399
119,297.002000093,+1.57114030E+00,,,-36.68336,-253.818324206,-54.8316650246
120,299.467000008,+1.57114410E+00,,,-36.99363,-256.403975904,-54.8360197044
121,301.933000088,+1.57112180E+00,,,-37.13841,-258.223767798,-54.8337142857
122,304.398000002,+1.57114410E+00,,,-37.25207,-260.017371303,-54.8361477833
123,306.864000082,+1.57113790E+00,,,-37.54725,-262.605191676,-54.8334581281
124,309.328999996,+1.57113170E+00,,,-37.66627,-264.442354874,-54.8367881773
125,311.795000076,+1.57114410E+00,,,-37.8992,-267.022508215,-54.8335862069
