Counter,Time(s),Temperature Voltage(V),Magnet Current(A),Field Coil Current(mA),SQUID Voltage(uV),Mod Current(uA),Pickup Loop Current(uA),
0,0.00699996948242,+1.57111930E+00,,,-39.43227,-0.011921905805,-55.0172906404
1,3.91700005531,+1.57112920E+00,,,-39.42878,-2.12695334064,-55.0207487685
2,6.44499993324,+1.57111060E+00,,,-39.51882,-4.25372891566,-55.0216453202
3,8.97300004959,+1.57112790E+00,,,-39.59441,-6.3673864184,-55.0137044335
4,11.5009999275,+1.57112180E+00,,,-39.68684,-8.48797349398,-55.012679803
5,14.0280001163,+1.57111680E+00,,,-39.82188,-10.6356199343,-55.0120394089
6,16.5339999199,+1.57112300E+00,,,-39.83095,-12.7340635268,-55.0152413793
7,19.0399999619,+1.57110690E+00,,,-39.736,-14.9022617744,-55.0171625616
8,21.5469999313,+1.57111930E+00,,,-39.65692,-17.0030328587,-55.0212610837
9,24.0529999733,+1.57111680E+00,,,-39.53191,-19.1015629792,-55.016137931
10,26.5580000877,+1.57113410E+00,,,-39.51855,-21.2172048193,-55.0233103448
11,29.0639998913,+1.57110810E+00,,,-39.35104,-23.3147656079,-55.0226699507
12,31.5699999332,+1.57111180E+00,,,-39.22122,-25.5115454545,-55.0295862069
13,34.0759999752,+1.57111060E+00,,,-39.14176,-27.6424337349,-55.0230541872
14,36.5820000172,+1.57112180E+00,,,-39.01474,-29.7622409639,-55.0262561576
15,39.0889999866,+1.57111310E+00,,,-38.94328,-31.8483866375,-55.0240788177
16,41.5950000286,+1.57111930E+00,,,-38.82254,-33.9704928806,-55.0240788177
17,44.1010000706,+1.57112550E+00,,,-38.68897,-36.0564797371,-55.0220295567
18,46.6080000401,+1.57110690E+00,,,-38.53845,-38.1731007667,-55.026
19,49.114000082,+1.57111560E+00,,,-38.3986,-40.2569299014,-55.0267684729
20,51.6199998856,+1.57110810E+00,,,-38.21469,-42.4725136911,-55.020364532
21,54.1259999275,+1.57112300E+00,,,-38.03183,-44.5564304491,-55.0195960591
22,56.632999897,+1.57110440E+00,,,-37.87742,-46.6726484118,-55.0229261084
23,59.1400001049,+1.57111180E+00,,,-37.62219,-48.7578784228,-55.0208768473
24,61.6459999084,+1.57111180E+00,,,-37.33434,-50.8759759036,-55.0216453202
25,64.1519999504,+1.57112420E+00,,,-37.02569,-52.9594841183,-55.0252315271
26,66.6589999199,+1.57111310E+00,,,-36.73385,-55.2038499452,-55.0285615764
27,69.1649999619,+1.57112550E+00,,,-36.4965,-57.4517009858,-55.0233103448
28,71.6710000038,+1.57111310E+00,,,-36.26543,-59.5058181818,-55.0238226601
29,74.1789999008,+1.57111680E+00,,,-35.9553,-61.6211796276,-55.0262561576
30,76.6840000153,+1.57112050E+00,,,-35.71996,-63.743253012,-55.0281773399
31,79.1909999847,+1.57112670E+00,,,-35.44481,-65.8659036145,-55.0247192118
32,81.6970000267,+1.57111430E+00,,,-35.13133,-67.9192902519,-55.0244630542
33,84.2019999027,+1.57111930E+00,,,-34.87181,-70.0348806134,-55.0271527094
34,86.7090001106,+1.57112420E+00,,,-34.70953,-72.1545542169,-55.0267684729
35,89.2149999142,+1.57110320E+00,,,-34.52281,-74.3376845564,-55.0243349754
36,91.7219998837,+1.57111430E+00,,,-34.23857,-76.4622562979,-55.0238226601
37,94.2279999256,+1.57111180E+00,,,-34.00898,-78.5819539978,-55.0281773399
38,96.7349998951,+1.57111430E+00,,,-33.83455,-80.7072048193,-55.0251034483
39,99.2409999371,+1.57112790E+00,,,-33.62405,-82.7684884995,-55.0265123153
40,101.746999979,+1.57111560E+00,,,-33.53483,-84.8899255203,-55.0277931034
41,104.253999949,+1.57111180E+00,,,-33.45748,-87.0114008762,-55.0275369458
42,106.75999999,+1.57111060E+00,,,-33.34262,-88.8787864184,-55.0294581281
43,109.26699996,+1.57110560E+00,,,-33.19316,-91.5102157722,-55.0293300493
44,111.773000002,+1.57111800E+00,,,-33.15123,-93.2431719606,-55.0312610837
45,114.279000044,+1.57112300E+00,,,-33.20211,-95.8768849945,-55.0316453202
46,116.785000086,+1.57112050E+00,,,-33.31177,-97.6106341731,-55.026
47,119.290999889,+1.57111430E+00,,,-33.49448,-99.4093702081,-55.0242068966
48,121.796999931,+1.57112180E+00,,,-33.67881,-101.978971522,-55.0272807882
49,124.302999973,+1.57110690E+00,,,-33.79126,-103.775038335,-55.0261280788
50,126.809999943,+1.57111680E+00,,,-33.9744,-106.411645126,-55.0289458128
51,129.316999912,+1.57111560E+00,,,-34.13105,-108.147907996,-55.0221576355
52,131.822999954,+1.57111930E+00,,,-34.26583,-109.883483023,-55.0234384236
53,134.288000107,+1.57111560E+00,,,-34.56716,-113.223121577,-55.0220295567
54,136.753999949,+1.57110690E+00,,,-34.81185,-115.034819277,-55.0215172414
55,139.219000101,+1.57111430E+00,,,-35.03008,-117.616276013,-55.0239507389
56,141.684000015,+1.57113410E+00,,,-35.21961,-119.433033954,-55.0221576355
57,144.150000095,+1.57111800E+00,,,-35.40781,-122.015794085,-55.0254876847
58,146.615999937,+1.57112300E+00,,,-35.55407,-123.824008762,-55.0227980296
59,149.082000017,+1.57111430E+00,,,-35.75535,-125.632519168,-55.0234384236
60,151.546999931,+1.57109700E+00,,,-36.04798,-128.220777656,-55.0243349754
61,154.012000084,+1.57109080E+00,,,-36.29027,-130.028992333,-55.0213891626
62,156.477999926,+1.57110440E+00,,,-36.57745,-132.630569551,-55.0249753695
63,158.944000006,+1.57109200E+00,,,-36.84818,-134.434742607,-55.023182266
64,161.410000086,+1.57110070E+00,,,-37.11263,-136.115410734,-55.0252315271
65,163.875,+1.57108210E+00,,,-37.38685,-138.831226725,-55.0239507389
66,166.339999914,+1.57107220E+00,,,-37.44735,-140.50263965,-55.0239507389
67,168.805000067,+1.57107960E+00,,,-37.66251,-143.220175246,-55.0240788177
68,171.269999981,+1.57107590E+00,,,-37.86261,-144.899835706,-55.0249753695
69,173.734999895,+1.57106600E+00,,,-38.11598,-146.707480832,-55.0222857143
70,176.200000048,+1.57107710E+00,,,-38.36226,-149.293285871,-55.0293300493
71,178.665999889,+1.57106850E+00,,,-38.60429,-151.094983571,-55.0230541872
72,181.131999969,+1.57106970E+00,,,-38.85605,-153.689759036,-55.024591133
73,183.596999884,+1.57107220E+00,,,-39.0305,-155.498127054,-55.0249753695
74,186.062000036,+1.57106850E+00,,,-39.14403,-158.211171961,-55.0267684729
75,188.52699995,+1.57106970E+00,,,-39.18223,-159.887656079,-55.0238226601
76,190.992000103,+1.57108080E+00,,,-39.19946,-161.700492881,-55.0277931034
77,193.457999945,+1.57107960E+00,,,-39.29201,-164.285279299,-55.0207487685
78,195.924999952,+1.57106720E+00,,,-39.3751,-166.098992333,-55.0254876847
79,198.390000105,+1.57107460E+00,,,-39.39511,-168.683493976,-55.024591133
80,200.855000019,+1.57107340E+00,,,-39.52523,-170.495903614,-55.021773399
81,203.319999933,+1.57108330E+00,,,-39.5944,-172.177612267,-55.026
82,205.785000086,+1.57107090E+00,,,-39.61124,-174.889079956,-55.0236945813
83,208.25,+1.57107220E+00,,,-39.55742,-176.698017525,-55.0199802956
84,210.714999914,+1.57107590E+00,,,-39.55807,-179.282081051,-55.0216453202
85,213.180999994,+1.57108330E+00,,,-39.61243,-181.097097481,-55.0234384236
86,215.647000074,+1.57107840E+00,,,-39.63676,-183.677097481,-55.0221576355
87,218.111999989,+1.57108210E+00,,,-39.56595,-185.487776561,-55.0243349754
88,220.576999903,+1.57109080E+00,,,-39.54486,-187.171631982,-55.0263842365
89,223.042000055,+1.57107960E+00,,,-39.33676,-189.880197152,-55.0235665025
90,225.506999969,+1.57108210E+00,,,-39.17181,-191.564633078,-55.0263842365
91,227.97300005,+1.57107220E+00,,,-39.07136,-194.274644031,-55.0224137931
92,230.438999891,+1.57108580E+00,,,-38.99671,-195.95736035,-55.0249753695
93,232.904999971,+1.57107460E+00,,,-38.91136,-197.773253012,-55.0261280788
94,235.368999958,+1.57108330E+00,,,-38.66787,-200.355290252,-55.0249753695
95,237.835000038,+1.57108210E+00,,,-38.47941,-202.169145674,-55.0238226601
96,240.299999952,+1.57108950E+00,,,-38.24193,-204.751182913,-55.0225418719
97,242.766000032,+1.57106970E+00,,,-38.05922,-206.559813801,-55.0195960591
98,245.230999947,+1.57107840E+00,,,-37.8586,-208.367743702,-55.0194679803
99,247.696000099,+1.57107220E+00,,,-37.61991,-210.952234392,-55.0207487685
100,250.161999941,+1.57108330E+00,,,-37.43894,-212.760744797,-55.0208768473
101,252.628000021,+1.57107710E+00,,,-37.14468,-215.350306681,-55.0207487685
102,255.092999935,+1.57108950E+00,,,-36.87128,-217.152880613,-55.0215172414
103,257.558000088,+1.57107960E+00,,,-36.54739,-219.742891566,-55.0167783251
104,260.023999929,+1.57108700E+00,,,-36.21815,-222.078817087,-55.0180591133
105,262.49000001,+1.57106850E+00,,,-35.95863,-223.881971522,-55.0199802956
106,264.954999924,+1.57108210E+00,,,-35.65798,-226.455027382,-55.018955665
107,267.421000004,+1.57108210E+00,,,-35.44506,-228.267732749,-55.0193399015
108,269.885999918,+1.57107220E+00,,,-35.20934,-230.841062432,-55.0181871921
109,272.351000071,+1.57106720E+00,,,-35.02714,-232.646823658,-55.0186995074
110,274.815999985,+1.57107090E+00,,,-34.90534,-234.450700986,-55.0213891626
111,277.280999899,+1.57107220E+00,,,-34.65611,-237.039824754,-55.0204926108
112,279.746000051,+1.57108460E+00,,,-34.56715,-238.845147864,-55.0212610837
113,282.211999893,+1.57107590E+00,,,-34.36147,-241.427338445,-55.0180591133
114,284.677999973,+1.57106850E+00,,,-34.2486,-243.237437021,-55.0153694581
115,287.142999887,+1.57107960E+00,,,-34.12451,-245.043198248,-55.0153694581
116,289.608999968,+1.57107220E+00,,,-34.01952,-247.6150931,-55.018955665
117,292.073999882,+1.57107960E+00,,,-33.8662,-249.434030668,-55.0171625616
118,294.539000034,+1.57107340E+00,,,-33.69711,-252.00720701,-55.0146009852
119,297.005000114,+1.57107840E+00,,,-33.70446,-253.82237678,-55.014729064
120,299.470000029,+1.57107340E+00,,,-33.68229,-256.4033954,-55.0122955665
121,301.937000036,+1.57108330E+00,,,-33.58505,-258.220010953,-55.0115270936
122,304.40199995,+1.57106230E+00,,,-33.57984,-260.013023001,-55.0153694581
123,306.867000103,+1.57107590E+00,,,-33.63808,-262.599693319,-55.0210049261
124,309.332999945,+1.57107710E+00,,,-33.67935,-264.432508215,-55.0138325123
125,311.798000097,+1.57107090E+00,,,-33.84817,-267.014687842,-55.0172906404
