Counter,Time(s),Temperature Voltage(V),Magnet Current(A),Field Coil Current(mA),SQUID Voltage(uV),Mod Current(uA),Pickup Loop Current(uA),
0,0.00600004196167,+1.57114650E+00,,,-39.01166,-0.0117021905805,-45.3835566502
1,3.91300010681,+1.57116020E+00,,,-39.06669,-2.12672771084,-45.3822758621
2,6.4390001297,+1.57115150E+00,,,-39.0882,-4.25043066813,-45.3852216749
3,8.96500015259,+1.57114160E+00,,,-39.16245,-6.36289529025,-45.383044335
4,11.4910001755,+1.57115770E+00,,,-39.11491,-8.49550503834,-45.3834285714
5,14.0170001984,+1.57114780E+00,,,-39.09794,-10.6439375685,-45.3815073892
6,16.5230000019,+1.57113910E+00,,,-39.02461,-12.7430186199,-45.3843251232
7,19.0280001163,+1.57115650E+00,,,-38.97454,-14.8560722892,-45.3840689655
8,21.5320000648,+1.57115270E+00,,,-38.97881,-16.9553537788,-45.3813793103
9,24.0370001793,+1.57115150E+00,,,-38.97787,-19.0498773275,-45.3840689655
10,26.5420000553,+1.57113910E+00,,,-38.91817,-21.1610350493,-45.3790738916
11,29.0470001698,+1.57115520E+00,,,-38.85686,-23.25416977,-45.3820197044
12,31.5530002117,+1.57115030E+00,,,-38.85727,-25.4462617744,-45.3813793103
13,34.0590000153,+1.57114780E+00,,,-38.83483,-27.6571456736,-45.3813793103
14,36.5660002232,+1.57113170E+00,,,-38.8272,-29.7770383352,-45.3838128079
15,39.0710000992,+1.57115400E+00,,,-38.75828,-31.8628806134,-45.3838128079
16,41.5760002136,+1.57114160E+00,,,-38.74227,-33.9858554217,-45.3806108374
17,44.0810000896,+1.57113170E+00,,,-38.69324,-36.0714797371,-45.3771527094
18,46.5870001316,+1.57112920E+00,,,-38.68456,-38.1891719606,-45.3803546798
19,49.0930001736,+1.57115650E+00,,,-38.66173,-40.2737973713,-45.383044335
20,51.5990002155,+1.57116140E+00,,,-38.61217,-42.4897710843,-45.3833004926
21,54.1040000916,+1.57114030E+00,,,-38.56569,-44.5742519168,-45.3807389163
22,56.6100001335,+1.57114650E+00,,,-38.58947,-46.6920317634,-45.3835566502
23,59.1150000095,+1.57113540E+00,,,-38.58798,-48.7779419496,-45.3817635468
24,61.6220002174,+1.57115770E+00,,,-38.57959,-50.8975290252,-45.381635468
25,64.1270000935,+1.57113040E+00,,,-38.6087,-52.9814424973,-45.3861182266
26,66.6340000629,+1.57114650E+00,,,-38.56569,-55.2598751369,-45.3889359606
27,69.1410000324,+1.57113660E+00,,,-38.52656,-57.50683023,-45.3804827586
28,71.6470000744,+1.57114650E+00,,,-38.4901,-59.5628411829,-45.3850935961
29,74.1520001888,+1.57114530E+00,,,-38.43332,-61.6801566265,-45.3820197044
30,76.6580002308,+1.57115770E+00,,,-38.41089,-63.8063515882,-45.3820197044
31,79.1640000343,+1.57114650E+00,,,-38.43519,-65.9326911281,-45.3799704433
32,81.6700000763,+1.57115650E+00,,,-38.45631,-67.9891741512,-45.3794581281
33,84.1760001183,+1.57114530E+00,,,-38.49156,-70.1081204819,-45.380226601
34,86.6820001602,+1.57114160E+00,,,-38.55513,-72.2270558598,-45.3804827586
35,89.1880002022,+1.57115270E+00,,,-38.55581,-74.4077272727,-45.3779211823
36,91.6940000057,+1.57114780E+00,,,-38.4806,-76.5297820372,-45.3784334975
37,94.2000000477,+1.57116390E+00,,,-38.45123,-78.6477437021,-45.3784334975
38,96.7060000896,+1.57114650E+00,,,-38.48301,-80.771286966,-45.3747192118
39,99.2120001316,+1.57114780E+00,,,-38.38671,-82.8296637459,-45.370364532
40,101.717000008,+1.57114530E+00,,,-38.36361,-84.94750931,-45.3792019704
41,104.225000143,+1.57116140E+00,,,-38.36894,-87.0670208105,-45.3813793103
42,106.731000185,+1.57114780E+00,,,-38.34317,-88.9295607886,-45.3766403941
43,109.237000227,+1.57115770E+00,,,-38.31952,-91.5618871851,-45.3789458128
44,111.743000031,+1.57114530E+00,,,-38.25702,-93.2945388828,-45.3738226601
45,114.249000072,+1.57116140E+00,,,-38.27438,-95.9284260679,-45.3753596059
46,116.755000114,+1.57115400E+00,,,-38.31205,-97.661769989,-45.3815073892
47,119.262000084,+1.57116020E+00,,,-38.29121,-99.4611566265,-45.3827881773
48,121.768000126,+1.57115520E+00,,,-38.31352,-102.031119387,-45.3840689655
49,124.275000095,+1.57115150E+00,,,-38.26023,-103.826362541,-45.3848374384
50,126.78000021,+1.57115770E+00,,,-38.34264,-106.460480832,-45.3835566502
51,129.286000013,+1.57114160E+00,,,-38.4018,-108.192201533,-45.3815073892
52,131.791000128,+1.57116390E+00,,,-38.44014,-109.928948521,-45.3848374384
53,134.256000042,+1.57115770E+00,,,-38.46311,-113.260613363,-45.3868866995
54,136.720000029,+1.57115890E+00,,,-38.37176,-115.07347207,-45.3818916256
55,139.186000109,+1.57116640E+00,,,-38.41676,-117.653625411,-45.3850935961
56,141.651000023,+1.57115770E+00,,,-38.41769,-119.465323111,-45.3817635468
57,144.116000175,+1.57115150E+00,,,-38.41355,-122.049233297,-45.3821477833
58,146.580000162,+1.57115270E+00,,,-38.38925,-123.860208105,-45.3850935961
59,149.043000221,+1.57116140E+00,,,-38.34557,-125.667261774,-45.3840689655
60,151.508000135,+1.57116390E+00,,,-38.3178,-128.2550931,-45.3817635468
61,153.972000122,+1.57114650E+00,,,-38.2816,-130.063023001,-45.383044335
62,156.43900013,+1.57116020E+00,,,-38.30083,-132.664600219,-45.3798423645
63,158.904000044,+1.57115270E+00,,,-38.33421,-134.46803943,-45.3761280788
64,161.368000031,+1.57116270E+00,,,-38.34637,-136.149868565,-45.3789458128
65,163.833000183,+1.57115030E+00,,,-38.33797,-138.868871851,-45.3792019704
66,166.298000097,+1.57115270E+00,,,-38.32687,-140.539112815,-45.3744630542
67,168.764000177,+1.57115890E+00,,,-38.32687,-143.257820372,-45.3765123153
68,171.229000092,+1.57115400E+00,,,-38.33823,-144.936462212,-45.3775369458
69,173.694000006,+1.57115150E+00,,,-38.27866,-146.743953998,-45.3770246305
70,176.159000158,+1.57114530E+00,,,-38.25582,-149.331215772,-45.3771527094
71,178.624000072,+1.57116640E+00,,,-38.22149,-151.134654984,-45.3772807882
72,181.089000225,+1.57115400E+00,,,-38.12211,-153.725082147,-45.3765123153
73,183.553000212,+1.57115150E+00,,,-38.05641,-155.533450164,-45.377408867
74,186.017000198,+1.57116020E+00,,,-38.03009,-158.248532311,-45.3780492611
75,188.481000185,+1.57113660E+00,,,-38.03504,-159.926736035,-45.3761280788
76,190.948000193,+1.57113910E+00,,,-38.02394,-161.739288061,-45.3733103448
77,193.413000107,+1.57115270E+00,,,-38.05093,-164.327261774,-45.3797142857
78,195.878000021,+1.57113540E+00,,,-38.0325,-166.140405257,-45.380226601
79,198.343000174,+1.57116270E+00,,,-38.08712,-168.722004381,-45.3807389163
80,200.808000088,+1.57114280E+00,,,-38.09553,-170.535136911,-45.3807389163
81,203.273000002,+1.57115150E+00,,,-38.10716,-172.21728368,-45.3794581281
82,205.738000154,+1.57113660E+00,,,-38.15124,-174.926133625,-45.3777931034
83,208.203000069,+1.57115890E+00,,,-38.07764,-176.734359255,-45.380226601
84,210.668000221,+1.57115270E+00,,,-38.03931,-179.324063527,-45.3734384236
85,213.133000135,+1.57116640E+00,,,-37.98081,-181.135027382,-45.3751034483
86,215.59800005,+1.57115270E+00,,,-37.92766,-183.714446878,-45.3758719212
87,218.062000036,+1.57114160E+00,,,-37.87582,-185.527875137,-45.3797142857
88,220.527000189,+1.57115030E+00,,,-37.82747,-187.209857612,-45.3766403941
89,222.991000175,+1.57113790E+00,,,-37.81252,-189.918127054,-45.3794581281
90,225.45600009,+1.57114780E+00,,,-37.84978,-191.599967141,-45.374591133
91,227.921000004,+1.57114900E+00,,,-37.95449,-194.314457831,-45.3776650246
92,230.386000156,+1.57114780E+00,,,-37.9613,-195.998181818,-45.3738226601
93,232.851000071,+1.57113660E+00,,,-37.94796,-197.810744797,-45.3843251232
94,235.315000057,+1.57114280E+00,,,-37.90936,-200.392343921,-45.3704926108
95,237.78000021,+1.57115270E+00,,,-37.91469,-202.206933187,-45.3794581281
96,240.246000051,+1.57112670E+00,,,-37.97627,-204.789112815,-45.3762561576
97,242.712000132,+1.57114530E+00,,,-38.02033,-206.596440307,-45.3794581281
98,245.177000046,+1.57113660E+00,,,-37.94969,-208.405673604,-45.3779211823
99,247.643000126,+1.57115030E+00,,,-37.94368,-210.993493976,-45.3743349754
100,250.10800004,+1.57114530E+00,,,-37.85832,-212.804030668,-45.3768965517
101,252.573000193,+1.57113910E+00,,,-37.86487,-215.390558598,-45.3729261084
102,255.038000107,+1.57112670E+00,,,-37.84683,-217.19645126,-45.373182266
103,257.503000021,+1.57113410E+00,,,-37.79476,-219.786757941,-45.3740788177
104,259.969000101,+1.57111930E+00,,,-37.75763,-222.096768894,-45.3715172414
105,262.435000181,+1.57114280E+00,,,-37.72155,-223.896736035,-45.3729261084
106,264.900000095,+1.57113040E+00,,,-37.67601,-226.471818182,-45.3762561576
107,267.36500001,+1.57113790E+00,,,-37.66733,-228.286834611,-45.3727980296
108,269.83100009,+1.57114410E+00,,,-37.64356,-230.856560789,-45.3688275862
109,272.29700017,+1.57113290E+00,,,-37.68243,-232.667382256,-45.374591133
110,274.762000084,+1.57114280E+00,,,-37.60656,-234.470098576,-45.3729261084
111,277.228000164,+1.57113290E+00,,,-37.63461,-237.058061336,-45.3740788177
112,279.693000078,+1.57112420E+00,,,-37.66346,-238.860208105,-45.3719014778
113,282.159000158,+1.57113040E+00,,,-37.62538,-241.44094195,-45.3725418719
114,284.625,+1.57113540E+00,,,-37.57838,-243.250032859,-45.366137931
115,287.090000153,+1.57113410E+00,,,-37.54658,-245.061577218,-45.3719014778
116,289.556000233,+1.57112670E+00,,,-37.48769,-247.628992333,-45.3726699507
117,292.021000147,+1.57114030E+00,,,-37.3755,-249.445323111,-45.368955665
118,294.487000227,+1.57112550E+00,,,-37.38443,-252.020525739,-45.367546798
119,296.953000069,+1.57113790E+00,,,-37.44801,-253.822081051,-45.3651133005
120,299.419000149,+1.57113910E+00,,,-37.43305,-256.402092004,-45.3699802956
121,301.884000063,+1.57113410E+00,,,-37.37964,-258.217984666,-45.367546798
122,304.349000216,+1.57114410E+00,,,-37.37255,-260.016648412,-45.3693399015
123,306.815000057,+1.57113290E+00,,,-37.40261,-262.606056955,-45.3649852217
124,309.281000137,+1.57113040E+00,,,-37.39927,-264.440043812,-45.3671625616
125,311.747000217,+1.57113170E+00,,,-37.39647,-267.017875137,-45.3710049261
