Counter,Time(s),Magnet Current(A)
0,0.069000005722,0.001
1,0.190999984741,0.002
2,0.31200003624,0.002
3,0.418999910355,0.002
4,0.539000034332,0.002
5,0.661000013351,0.002
6,0.782999992371,0.003
7,0.910000085831,0.005
8,1.03200006485,0.006
9,1.15300011635,0.008
10,1.25999999046,0.009
11,1.38100004196,0.012
12,1.50300002098,0.015
13,1.62400007248,0.018
14,1.73099994659,0.02
15,1.85100007057,0.023
16,1.97300004959,0.029
17,2.09400010109,0.033
18,2.2009999752,0.038
19,2.32100009918,0.041
20,2.4430000782,0.046
21,2.56500005722,0.053
22,2.72099995613,0.058
23,2.84100008011,0.063
24,2.96300005913,0.067
25,3.08500003815,0.073
26,3.20700001717,0.077
27,3.31399989128,0.083
28,3.43499994278,0.086
29,3.5569999218,0.092
30,3.67899990082,0.096
31,3.78600001335,0.104
32,3.90499997139,0.107
33,4.02699995041,0.111
34,4.14800000191,0.117
35,4.25500011444,0.123
36,4.37599992752,0.127
37,4.54699993134,0.132
38,4.66799998283,0.139
39,4.77500009537,0.143
40,4.89499998093,0.147
41,5.01699995995,0.152
42,5.13899993896,0.158
43,5.2460000515,0.162
44,5.36500000954,0.165
45,5.48699998856,0.172
46,5.60899996758,0.177
47,5.71700000763,0.184
48,5.88499999046,0.188
49,6.00699996948,0.194
50,6.1289999485,0.197
51,6.23600006104,0.204
52,6.35599994659,0.208
53,6.47799992561,0.212
54,6.59999990463,0.218
55,6.70700001717,0.223
56,6.82699990273,0.228
57,6.94799995422,0.232
58,7.06900000572,0.241
59,7.22300004959,0.244
60,7.34500002861,0.248
61,7.46700000763,0.254
62,7.58899998665,0.26
63,7.69600009918,0.264
64,7.81599998474,0.268
65,7.93799996376,0.274
66,8.05999994278,0.278
67,8.16700005531,0.285
68,8.28600001335,0.288
69,8.40799999237,0.294
70,8.52999997139,0.298
71,8.63700008392,0.303
72,8.75699996948,0.307
73,8.8789999485,0.313
74,9.03299999237,0.319
75,9.15300011635,0.324
76,9.27500009537,0.329
77,9.39599990845,0.334
78,9.50300002098,0.34
79,9.62299990654,0.344
80,9.74500012398,0.348
81,9.86599993706,0.354
82,9.97300004959,0.358
83,10.0940001011,0.362
84,10.2149999142,0.367
85,10.3369998932,0.373
86,10.4440000057,0.377
87,10.5639998913,0.384
88,10.6860001087,0.39
89,10.8570001125,0.396
90,10.9639999866,0.4
91,11.0820000172,0.403
92,11.2039999962,0.409
93,11.3259999752,0.413
94,11.4330000877,0.419
95,11.5539999008,0.423
96,11.6760001183,0.428
97,11.7969999313,0.433
98,11.9040000439,0.438
99,12.0239999294,0.445
100,12.1719999313,0.449
101,12.2939999104,0.454
102,12.4160001278,0.46
103,12.5230000019,0.465
104,12.6430001259,0.469
105,12.763999939,0.474
106,12.885999918,0.479
107,12.9930000305,0.483
108,13.1129999161,0.487
109,13.2349998951,0.493
110,13.3570001125,0.498
111,13.4790000916,0.503
112,13.5859999657,0.509
113,13.7070000172,0.513
114,13.8280000687,0.519
115,13.9809999466,0.526
116,14.1019999981,0.53
117,14.2239999771,0.534
118,14.3450000286,0.54
119,14.4530000687,0.545
120,14.5729999542,0.549
121,14.6949999332,0.552
122,14.8169999123,0.559
123,14.9240000248,0.564
124,15.0429999828,0.568
125,15.1649999619,0.572
126,15.2869999409,0.578
127,15.3949999809,0.582
128,15.513999939,0.586
129,15.635999918,0.595
130,15.8050000668,0.6
131,15.9119999409,0.604
132,16.0329999924,0.608
133,16.1549999714,0.615
134,16.2750000954,0.62
135,16.3819999695,0.626
136,16.503000021,0.629
137,16.6240000725,0.632
138,16.745000124,0.639
139,16.8510000706,0.644
140,16.9720001221,0.648
141,17.0929999352,0.653
142,17.2000000477,0.659
143,17.3199999332,0.663
144,17.4409999847,0.666
145,17.5620000362,0.673
146,17.6679999828,0.678
147,17.7899999619,0.682
148,17.9110000134,0.687
149,18.0180001259,0.692
150,18.1370000839,0.696
151,18.257999897,0.699
152,18.3800001144,0.706
153,18.4869999886,0.711
154,18.6070001125,0.716
155,18.7279999256,0.72
156,18.8489999771,0.729
157,19.0020000935,0.733
158,19.1240000725,0.737
159,19.245000124,0.742
160,19.3519999981,0.747
161,19.4739999771,0.752
162,19.5959999561,0.756
163,19.7179999352,0.762
164,19.8399999142,0.766
165,19.9470000267,0.772
166,20.0680000782,0.776
167,20.1900000572,0.783
168,20.3399999142,0.787
169,20.4600000381,0.792
170,20.5820000172,0.798
171,20.6889998913,0.802
172,20.8099999428,0.806
173,20.9309999943,0.812
174,21.0520000458,0.818
175,21.1589999199,0.823
176,21.2790000439,0.827
177,21.4000000954,0.831
178,21.5069999695,0.836
179,21.6259999275,0.839
180,21.746999979,0.845
181,21.8540000916,0.85
182,21.9720001221,0.855
183,22.0929999352,0.861
184,22.2000000477,0.865
185,22.3190000057,0.868
186,22.4409999847,0.873
187,22.5620000362,0.88
188,22.6689999104,0.884
189,22.7899999619,0.888
190,22.9119999409,0.893
191,23.0339999199,0.899
192,23.1410000324,0.903
193,23.260999918,0.908
194,23.382999897,0.914
195,23.5039999485,0.918
196,23.611000061,0.922
197,23.7309999466,0.926
198,23.8529999256,0.933
199,23.9749999046,0.938
200,24.0820000172,0.943
201,24.2019999027,0.947
202,24.3229999542,0.951
203,24.4449999332,0.957
204,24.5520000458,0.962
205,24.6719999313,0.966
206,24.7929999828,0.97
207,24.9149999619,0.978
208,25.0220000744,0.982
209,25.1419999599,0.986
210,25.2630000114,0.991
211,25.3849999905,0.996
212,25.4930000305,1.001
213,25.6119999886,1.005
214,25.7330000401,1.011
215,25.8540000916,1.016
216,25.9609999657,1.021
217,26.0820000172,1.026
218,26.2039999962,1.032
219,26.3529999256,1.036
220,26.4739999771,1.041
221,26.5810000896,1.047
222,26.7009999752,1.051
223,26.8229999542,1.055
224,26.9440000057,1.062
225,27.0510001183,1.066
226,27.1710000038,1.071
227,27.2950000763,1.076
228,27.4160001278,1.081
229,27.5380001068,1.086
230,27.6440000534,1.091
231,27.7650001049,1.095
232,27.8870000839,1.1
233,28.007999897,1.107
234,28.1600000858,1.111
235,28.2809998989,1.117
236,28.3880000114,1.12
237,28.507999897,1.125
238,28.6289999485,1.131
239,28.7509999275,1.136
240,28.8580000401,1.142
241,28.9769999981,1.145
242,29.0989999771,1.151
243,29.2200000286,1.155
244,29.3269999027,1.162
245,29.4479999542,1.165
246,29.5690000057,1.17
247,29.6760001183,0.174
248,29.7939999104,1.178
249,29.9149999619,1.184
250,30.0220000744,1.188
251,30.1419999599,1.192
252,30.2630000114,1.199
253,30.3849999905,1.204
254,30.4930000305,1.21
255,30.6119999886,1.212
256,30.7339999676,1.22
257,30.9040000439,1.224
258,31.010999918,1.231
259,31.131000042,1.235
260,31.253000021,1.239
261,31.3740000725,1.244
262,31.4809999466,1.25
263,31.6010000706,1.254
264,31.7220001221,1.259
265,31.8289999962,0.265
266,31.9479999542,1.268
267,32.0699999332,1.273
268,32.1909999847,1.279
269,32.2980000973,1.284
270,32.4179999828,1.288
271,32.5390000343,1.292
272,32.6600000858,1.298
273,32.7669999599,1.302
274,32.8880000114,1.307
275,33.0120000839,1.314
276,33.1589999199,1.318
277,33.2809998989,1.324
278,33.4030001163,1.328
279,33.5099999905,1.335
280,33.6300001144,1.339
281,33.7520000935,1.343
282,33.8729999065,1.348
283,33.9800000191,1.352
284,34.1010000706,1.358
285,34.2220001221,1.362
286,34.3440001011,1.368
287,34.4509999752,1.371
288,34.5710000992,1.377
289,34.6919999123,1.382
290,34.8139998913,1.387
291,34.9210000038,1.392
292,35.0410001278,1.396
293,35.1619999409,1.402
294,35.2680001259,1.406
295,35.3870000839,1.41
296,35.5069999695,1.416
297,35.6129999161,1.42
298,35.7339999676,1.425
299,35.8540000916,1.43
300,35.9609999657,1.436
301,36.0799999237,1.44
302,36.2019999027,1.445
303,36.3220000267,1.45
304,36.4289999008,1.455
305,36.5499999523,1.46
306,36.6710000038,1.464
307,36.7769999504,1.47
308,36.8970000744,1.474
309,37.0180001259,1.478
310,37.138999939,1.487
311,37.2910001278,1.491
312,37.4119999409,1.494
313,37.5190000534,1.499
314,37.6400001049,1.504
315,37.7709999084,1.51
316,37.8919999599,1.516
317,38.010999918,1.519
318,38.1319999695,1.521
319,38.2379999161,1.522
320,38.3570001125,1.521
321,38.4769999981,1.521
322,38.628000021,1.52
323,38.7490000725,1.517
324,38.8559999466,1.516
325,38.9760000706,1.514
326,39.0970001221,1.512
327,39.2039999962,1.509
328,39.3229999542,1.506
329,39.4449999332,1.504
330,39.5669999123,1.498
331,39.6740000248,1.495
332,39.7939999104,1.492
333,39.9149999619,1.487
334,40.0360000134,1.483
335,40.1430001259,1.478
336,40.2630000114,1.473
337,40.3840000629,1.466
338,40.4900000095,0.463
339,40.6089999676,1.459
340,40.7309999466,1.454
341,40.8369998932,1.45
342,40.9560000896,1.445
343,41.0759999752,1.44
344,41.1819999218,1.433
345,41.3029999733,1.429
346,41.4240000248,1.426
347,41.5299999714,1.42
348,41.6500000954,1.413
349,41.8010001183,1.407
350,41.9219999313,1.403
351,42.0429999828,1.399
352,42.1489999294,1.393
353,42.2699999809,1.389
354,42.3919999599,1.384
355,42.5130000114,1.379
356,42.620000124,1.374
357,42.739000082,1.37
358,42.8589999676,1.366
359,42.9649999142,1.36
360,43.0850000381,1.355
361,43.2060000896,1.351
362,43.3120000362,1.347
363,43.4319999218,1.343
364,43.5529999733,1.336
365,43.6740000248,1.332
366,43.7809998989,1.325
367,43.9019999504,1.322
368,44.0239999294,1.318
369,44.1459999084,1.312
370,44.253000021,1.306
371,44.3729999065,1.302
372,44.493999958,1.299
373,44.6159999371,1.292
374,44.7230000496,1.288
375,44.8429999352,1.284
376,44.9639999866,1.279
377,45.0859999657,1.274
378,45.1930000782,1.268
379,45.3139998913,1.264
380,45.4360001087,1.258
381,45.5580000877,1.254
382,45.6800000668,1.248
383,45.7869999409,1.243
384,45.9079999924,1.239
385,46.0290000439,1.235
386,46.1510000229,1.228
387,46.257999897,1.225
388,46.378000021,1.222
389,46.5,1.214
390,46.621999979,1.209
391,46.743999958,1.203
392,46.8510000706,1.199
393,46.9720001221,1.196
394,47.0940001011,1.191
395,47.2160000801,1.181
396,47.3680000305,1.178
397,47.4900000095,1.173
398,47.6119999886,1.168
399,47.7339999676,1.162
400,47.8410000801,1.158
401,47.9619998932,1.154
402,48.0840001106,1.149
403,48.2060000896,1.145
404,48.3269999027,1.138
405,48.4340000153,1.133
406,48.5559999943,1.127
407,48.7039999962,1.123
408,48.8259999752,1.119
409,48.9470000267,1.112
410,49.0539999008,1.108
411,49.1749999523,1.104
412,49.2960000038,1.099
413,49.4179999828,1.093
414,49.5250000954,1.089
415,49.6449999809,1.084
416,49.7669999599,1.078
417,49.888999939,1.074
418,50.010999918,1.069
419,50.1180000305,1.065
420,50.239000082,1.06
421,50.361000061,1.053
422,50.5099999905,1.049
423,50.6319999695,1.042
424,50.7539999485,1.038
425,50.861000061,1.033
426,50.9809999466,1.029
427,51.1029999256,1.023
428,51.2249999046,1.019
429,51.3320000172,1.012
430,51.4509999752,1.008
431,51.5720000267,1.005
432,51.6789999008,0.999
433,51.7969999313,0.995
434,51.9189999104,0.99
435,52.0399999619,0.985
436,52.1470000744,0.977
437,52.3159999847,0.973
438,52.4379999638,0.968
439,52.5599999428,0.962
440,52.6670000553,0.958
441,52.7880001068,0.953
442,52.9089999199,0.949
443,53.0309998989,0.943
444,53.1380000114,0.939
445,53.257999897,0.935
446,53.3800001144,0.928
447,53.5020000935,0.921
448,53.6530001163,0.918
449,53.7739999294,0.913
450,53.881000042,0.908
451,54.0,0.903
452,54.121999979,0.899
453,54.243999958,0.893
454,54.3510000706,0.888
455,54.4709999561,0.884
456,54.5920000076,0.88
457,54.7139999866,0.874
458,54.8210000992,0.87
459,54.9419999123,0.863
460,55.0629999638,0.859
461,55.1849999428,0.854
462,55.2920000553,0.849
463,55.4110000134,0.845
464,55.5329999924,0.839
465,55.6549999714,0.836
466,55.7620000839,0.829
467,55.9089999199,0.824
468,56.0290000439,0.82
469,56.1510000229,0.814
470,56.2720000744,0.81
471,56.3789999485,0.803
472,56.5,0.8
473,56.621999979,0.796
474,56.743999958,0.79
475,56.8510000706,0.785
476,56.9700000286,0.78
477,57.0920000076,0.777
478,57.2139999866,0.769
479,57.3220000267,0.766
480,57.4409999847,0.762
481,57.5620000362,0.757
482,57.6830000877,0.751
483,57.7899999619,0.747
484,57.9100000858,0.743
485,58.0320000648,0.735
486,58.1840000153,0.731
487,58.3059999943,0.725
488,58.4270000458,0.72
489,58.5339999199,0.716
490,58.6549999714,0.711
491,58.7769999504,0.707
492,58.8989999294,0.701
493,59.0199999809,0.697
494,59.1270000935,0.69
495,59.2479999065,0.687
496,59.370000124,0.68
497,59.5199999809,0.675
498,59.6419999599,0.67
499,59.763999939,0.664
500,59.8710000515,0.661
501,59.9909999371,0.656
502,60.1119999886,0.651
503,60.2339999676,0.645
504,60.3410000801,0.641
505,60.4609999657,0.638
506,60.5820000172,0.63
507,60.7039999962,0.627
508,60.8110001087,0.621
509,60.9309999943,0.617
510,61.0529999733,0.612
511,61.1740000248,0.607
512,61.2809998989,0.601
513,61.4010000229,0.596
514,61.5230000019,0.593
515,61.6449999809,0.587
516,61.7520000935,0.582
517,61.871999979,0.577
518,61.993999958,0.573
519,62.1159999371,0.567
520,62.2379999161,0.563
521,62.3450000286,0.556
522,62.4649999142,0.552
523,62.5869998932,0.545
524,62.739000082,0.542
525,62.8599998951,0.538
526,62.9809999466,0.532
527,63.0880000591,0.527
528,63.2079999447,0.523
529,63.3289999962,0.517
530,63.4500000477,0.512
531,63.5569999218,0.508
532,63.6770000458,0.504
533,63.7990000248,0.499
534,63.9200000763,0.493
535,64.0729999542,0.489
536,64.1940000057,0.483
537,64.3010001183,0.478
538,64.4200000763,0.474
539,64.5410001278,0.471
540,64.6480000019,0.465
541,64.7669999599,0.462
542,64.888999939,0.457
543,65.010999918,0.452
544,65.1180000305,0.449
545,65.2379999161,0.443
546,65.3900001049,0.44
547,65.5090000629,0.437
548,65.6300001144,0.431
549,65.7369999886,0.427
550,65.8559999466,0.424
551,65.9769999981,0.42
552,66.0980000496,0.415
553,66.2049999237,0.413
554,66.3269999027,0.409
555,66.4479999542,0.405
556,66.5690000057,0.401
557,66.6760001183,0.398
558,66.7960000038,0.394
559,66.9170000553,0.389
560,67.0239999294,0.385
561,67.1700000763,0.382
562,67.2910001278,0.379
563,67.4119999409,0.375
564,67.5339999199,0.371
565,67.6410000324,0.369
566,67.7620000839,0.365
567,67.882999897,0.361
568,68.0039999485,0.358
569,68.1119999886,0.354
570,68.2320001125,0.352
571,68.3540000916,0.347
572,68.507999897,0.344
573,68.628000021,0.341
574,68.75,0.337
575,68.8710000515,0.335
576,68.9779999256,0.331
577,69.0980000496,0.328
578,69.2190001011,0.325
579,69.3410000801,0.323
580,69.4490001202,0.319
581,69.5680000782,0.316
582,69.6900000572,0.314
583,69.8120000362,0.31
584,69.9189999104,0.307
585,70.0390000343,0.305
586,70.1600000858,0.3
587,70.2880001068,0.3
588,70.4089999199,0.298
589,70.5299999714,0.294
590,70.6380000114,0.291
591,70.7569999695,0.287
592,70.8789999485,0.285
593,71.0009999275,0.282
594,71.1229999065,0.281
595,71.2300000191,0.277
596,71.3510000706,0.275
597,71.4730000496,0.272
598,71.5940001011,0.27
599,71.7009999752,0.267
600,71.8210000992,0.264
601,71.9419999123,0.261
602,72.0910000801,0.259
603,72.2130000591,0.258
604,72.3210000992,0.255
605,72.4389998913,0.252
606,72.5599999428,0.25
607,72.6819999218,0.247
608,72.7899999619,0.246
609,72.9100000858,0.243
610,73.0309998989,0.24
611,73.1519999504,0.238
612,73.2590000629,0.237
613,73.3789999485,0.236
614,73.5,0.232
615,73.6070001125,0.231
616,73.7269999981,0.228
617,73.8480000496,0.226
618,73.9700000286,0.224
619,74.0769999027,0.223
620,74.1970000267,0.219
621,74.3489999771,0.216
622,74.4690001011,0.215
623,74.5899999142,0.213
624,74.7109999657,0.21
625,74.8180000782,0.208
626,74.9389998913,0.206
627,75.0599999428,0.206
628,75.1809999943,0.202
629,75.2880001068,0.201
630,75.4089999199,0.199
631,75.5309998989,0.197
632,75.6809999943,0.196
633,75.8020000458,0.193
634,75.9089999199,0.193
635,76.0280001163,0.191
636,76.1500000954,0.188
637,76.2709999084,0.186
638,76.378000021,0.184
639,76.4990000725,0.183
640,76.620000124,0.181
641,76.7409999371,0.181
642,76.8480000496,0.179
643,76.9979999065,0.176
644,77.1180000305,0.175
645,77.239000082,0.173
646,77.361000061,0.172
647,77.4679999352,0.169
648,77.5880000591,0.169
649,77.7090001106,0.168
650,77.8159999847,0.165
651,77.9349999428,0.164
652,78.0569999218,0.162
653,78.1789999008,0.161
654,78.2999999523,0.159
655,78.4079999924,0.158
656,78.5280001163,0.156
657,78.6489999294,0.155
658,78.7990000248,0.152
659,78.9200000763,0.152
660,79.0269999504,0.152
661,79.1470000744,0.15
662,79.2680001259,0.146
663,79.375,0.146
664,79.493999958,0.145
665,79.6640000343,0.143
666,79.7850000858,0.141
667,79.8919999599,0.14
668,80.0130000114,0.138
669,80.1349999905,0.136
670,80.256000042,0.136
671,80.3629999161,0.135
672,80.507999897,0.134
673,80.6289999485,0.133
674,80.7369999886,0.131
675,80.8550000191,0.13
676,80.9760000706,0.13
677,81.0970001221,0.127
678,81.2039999962,0.126
679,81.3250000477,0.125
680,81.4470000267,0.124
681,81.5690000057,0.122
682,81.6760001183,0.122
683,81.7960000038,0.121
684,81.9170000553,0.119
685,82.0390000343,0.118
686,82.1459999084,0.117
687,82.2660000324,0.117
688,82.3870000839,0.115
689,82.507999897,0.114
690,82.6150000095,0.113
691,82.7820000648,0.111
692,82.888999939,0.111
693,83.007999897,0.11
694,83.1300001144,0.109
695,83.2520000935,0.108
696,83.3589999676,0.107
697,83.4790000916,0.106
698,83.5999999046,0.104
699,83.7209999561,0.103
700,83.8280000687,0.102
701,83.9479999542,0.101
702,84.0950000286,0.101
703,84.2160000801,0.099
704,84.3229999542,0.099
705,84.4440000057,0.098
706,84.5650000572,0.097
707,84.6870000362,0.096
708,84.7950000763,0.095
709,84.9140000343,0.095
710,85.0350000858,0.093
711,85.1559998989,0.093
712,85.2630000114,0.091
713,85.3840000629,0.09
714,85.5050001144,0.09
715,85.6119999886,0.09
716,85.7309999466,0.089
717,85.8519999981,0.087
718,85.9730000496,0.088
719,86.0799999237,0.085
720,86.2009999752,0.086
721,86.3480000496,0.085
722,86.4700000286,0.084
723,86.5769999027,0.083
724,86.6960000992,0.083
725,86.8180000782,0.081
726,86.9400000572,0.081
727,87.0469999313,0.079
728,87.1660001278,0.079
729,87.2880001068,0.078
730,87.4089999199,0.078
731,87.5160000324,0.077
732,87.635999918,0.076
733,87.7569999695,0.075
734,87.878000021,0.074
735,87.9849998951,0.074
736,88.1519999504,0.073
737,88.2590000629,0.073
738,88.3789999485,0.073
739,88.5,0.071
740,88.6210000515,0.07
741,88.7279999256,0.069
742,88.8489999771,0.069
743,88.9700000286,0.068
744,89.0910000801,0.068
745,89.1979999542,0.067
746,89.3199999332,0.066
747,89.4419999123,0.067
748,89.5629999638,0.065
749,89.6700000763,0.065
750,89.7890000343,0.064
751,89.9360001087,0.063
752,90.0580000877,0.063
753,90.1649999619,0.061
754,90.2839999199,0.061
755,90.4049999714,0.062
756,90.5120000839,0.06
757,90.631000042,0.06
758,90.7520000935,0.058
759,90.8729999065,0.059
760,90.9800000191,0.058
761,91.1010000706,0.058
762,91.2230000496,0.058
763,91.3440001011,0.056
764,91.4509999752,0.056
765,91.5720000267,0.055
766,91.7400000095,0.056
767,91.8470001221,0.054
768,91.9679999352,0.054
769,92.0889999866,0.054
770,92.2100000381,0.053
771,92.3169999123,0.052
772,92.4370000362,0.052
773,92.5590000153,0.052
774,92.6800000668,0.05
775,92.7869999409,0.052
776,92.9079999924,0.051
777,93.0559999943,0.05
778,93.1789999008,0.049
779,93.2999999523,0.048
780,93.4079999924,0.048
781,93.5269999504,0.048
782,93.6480000019,0.047
783,93.756000042,0.048
784,93.8740000725,0.047
785,93.995000124,0.047
786,94.1159999371,0.045
787,94.2230000496,0.045
788,94.3440001011,0.046
789,94.4660000801,0.044
790,94.5869998932,0.045
791,94.6940000057,0.044
792,94.8619999886,0.043
793,94.9830000401,0.042
794,95.0899999142,0.042
795,95.2109999657,0.042
796,95.3320000172,0.041
797,95.4539999962,0.042
798,95.5620000362,0.04
799,95.6809999943,0.04
800,95.8020000458,0.04
801,95.9230000973,0.04
802,96.0299999714,0.039
803,96.1510000229,0.038
804,96.2730000019,0.04
805,96.3940000534,0.038
806,96.5020000935,0.037
807,96.6480000019,0.037
808,96.7699999809,0.037
809,96.8910000324,0.037
810,97.0130000114,0.035
811,97.120000124,0.035
812,97.2400000095,0.035
813,97.3619999886,0.036
814,97.4839999676,0.035
815,97.5910000801,0.036
816,97.7100000381,0.036
817,97.8310000896,0.034
818,97.9379999638,0.034
819,98.0559999943,0.033
820,98.1770000458,0.032
821,98.2839999199,0.034
822,98.4270000458,0.033
823,98.5480000973,0.031
824,98.6549999714,0.032
825,98.7739999294,0.033
826,98.8949999809,0.031
827,99.0160000324,0.031
828,99.1229999065,0.031
829,99.243999958,0.031
830,99.3659999371,0.03
831,99.4869999886,0.031
832,99.5940001011,0.03
833,99.7149999142,0.029
834,99.8369998932,0.029
835,99.9590001106,0.029
836,100.065999985,0.029
837,100.230999947,0.028
838,100.338000059,0.03
839,100.457999945,0.029
840,100.578999996,0.028
841,100.700000048,0.027
842,100.806999922,0.027
843,100.927999973,0.028
844,101.049000025,0.026
