Counter,Time(s),Temperature Voltage(V),Magnet Current(A),Field Coil Current(mA),SQUID Voltage(uV),Mod Current(uA),Pickup Loop Current(uA),
0,0.00699996948242,+1.57092960E+00,,,-56.34619,-0.00560164293538,-68.056364532
1,3.91600012779,+1.57093090E+00,,,-56.34245,-2.16471171961,-68.0589261084
2,6.44400000572,+1.57092840E+00,,,-56.38666,-4.33552694414,-68.060591133
3,8.97200012207,+1.57092710E+00,,,-56.38587,-6.47690733844,-68.0589261084
4,11.5009999275,+1.57092340E+00,,,-56.34272,-8.67443307777,-68.0595665025
5,14.0299999714,+1.57092470E+00,,,-56.36904,-10.8321938664,-68.0562364532
6,16.5360000134,+1.57092840E+00,,,-56.39054,-12.980803943,-68.0580295567
7,19.0420000553,+1.57092470E+00,,,-56.33218,-15.1606615553,-68.0564926108
8,21.5490000248,+1.57092590E+00,,,-56.34727,-17.3160854326,-68.0641773399
9,24.0550000668,+1.57092590E+00,,,-56.38333,-19.4683691128,-68.0586699507
10,26.5610001087,+1.57092960E+00,,,-56.37479,-21.6217798467,-68.0623842365
11,29.0669999123,+1.57093090E+00,,,-56.38666,-23.7573570646,-68.0566206897
12,31.5750000477,+1.57092840E+00,,,-56.4047,-25.9579978094,-68.0587980296
13,34.0810000896,+1.57092840E+00,,,-56.45826,-28.2014731654,-68.0567487685
14,36.5870001316,+1.57092470E+00,,,-56.50753,-30.3541610077,-68.0594384236
15,39.0929999352,+1.57092840E+00,,,-56.55723,-32.5091182913,-68.0564926108
16,41.5989999771,+1.57092590E+00,,,-56.57272,-34.6647261774,-68.0546995074
17,44.1059999466,+1.57092710E+00,,,-56.62896,-36.8165739321,-68.0575172414
18,46.6119999886,+1.57092840E+00,,,-56.64525,-38.9363800657,-68.0538029557
19,49.118999958,+1.57092590E+00,,,-56.68907,-41.0903822563,-68.0512315271
20,51.625,+1.57092590E+00,,,-56.72739,-43.3087721796,-68.0536748768
21,54.131000042,+1.57092470E+00,,,-56.74436,-45.365924425,-68.0486699507
22,56.6370000839,+1.57092960E+00,,,-56.80366,-47.5520690033,-68.0534187192
23,59.1430001259,+1.57092840E+00,,,-56.79124,-49.772075575,-68.0461083744
24,61.6489999294,+1.57092840E+00,,,-56.82583,-51.9585662651,-68.047773399
25,64.1549999714,+1.57092710E+00,,,-56.86362,-54.1457787514,-68.0514975369
26,66.6619999409,+1.57093090E+00,,,-56.89021,-56.7471128149,-68.0539310345
27,69.1679999828,+1.57092840E+00,,,-56.90463,-58.948211391,-68.0472610837
28,71.6740000248,+1.57092710E+00,,,-56.93415,-61.1497020811,-68.0507192118
29,74.1809999943,+1.57092590E+00,,,-56.94202,-62.9630952903,-68.0464926108
30,76.6870000362,+1.57092710E+00,,,-56.97649,-65.1665082147,-68.0464926108
31,79.1919999123,+1.57092710E+00,,,-56.97115,-67.3741292442,-68.0466206897
32,81.6990001202,+1.57092960E+00,,,-56.97142,-69.5797820372,-68.0470049261
33,84.2070000172,+1.57092840E+00,,,-56.9435,-71.779736035,-68.0475172414
34,86.7139999866,+1.57092960E+00,,,-56.96514,-73.9826834611,-68.0529064039
35,89.2200000286,+1.57092960E+00,,,-56.97542,-76.1808707558,-68.0475172414
36,91.7260000706,+1.57092710E+00,,,-56.97756,-78.3841511501,-68.0499507389
37,94.2330000401,+1.57092710E+00,,,-57.04167,-80.5850996714,-68.0464926108
38,96.739000082,+1.57092710E+00,,,-57.06184,-82.7900427163,-68.0494384236
39,99.2460000515,+1.57092590E+00,,,-57.07306,-84.9909496166,-68.0462364532
40,101.753000021,+1.57093090E+00,,,-57.10365,-87.1929441402,-68.0443152709
41,104.259000063,+1.57093090E+00,,,-57.11406,-88.9390350493,-68.0439310345
42,106.766000032,+1.57092960E+00,,,-57.07773,-91.13967908,-68.0425221675
43,109.273000002,+1.57092710E+00,,,-57.04741,-93.3411478642,-68.0452118227
44,111.779000044,+1.57092710E+00,,,-57.074,-95.5440460022,-68.0457241379
45,114.285000086,+1.57092840E+00,,,-57.08134,-97.7477677985,-68.0434187192
46,116.791000128,+1.57093460E+00,,,-57.05864,-100.016282585,-68.049182266
47,119.299000025,+1.57093330E+00,,,-57.06237,-102.21890471,-68.0462364532
48,121.805000067,+1.57092590E+00,,,-57.05356,-104.417154436,-68.0454679803
49,124.311000109,+1.57092840E+00,,,-57.02551,-106.619746988,-68.0439310345
50,126.815999985,+1.57093330E+00,,,-57.00681,-108.819171961,-68.0426502463
51,129.322999954,+1.57093580E+00,,,-57.0299,-111.28026287,-68.0416256158
52,131.788000107,+1.57093330E+00,,,-57.04834,-113.090065717,-68.043546798
53,134.253000021,+1.57092960E+00,,,-57.06464,-115.284841183,-68.0406009852
54,136.720000029,+1.57093330E+00,,,-57.05289,-117.481489595,-68.0441871921
55,139.186000109,+1.57093090E+00,,,-56.99532,-119.679879518,-68.0417536946
56,141.651000023,+1.57092960E+00,,,-56.96607,-121.880427163,-68.0429064039
57,144.115999937,+1.57092960E+00,,,-56.92788,-124.073023001,-68.0382955665
58,146.58100009,+1.57092710E+00,,,-56.95833,-126.274446878,-68.0429064039
59,149.046999931,+1.57093090E+00,,,-56.87952,-128.473844469,-68.0452118227
60,151.513000011,+1.57093210E+00,,,-56.82449,-130.680909091,-68.0431625616
61,153.979000092,+1.57093090E+00,,,-56.76412,-132.892322015,-68.0403448276
62,156.444000006,+1.57092840E+00,,,-56.72205,-135.09143483,-68.0375270936
63,158.90899992,+1.57092840E+00,,,-56.67129,-137.291708653,-68.0398325123
64,161.375,+1.57093090E+00,,,-56.62575,-139.098192771,-68.0395763547
65,163.839999914,+1.57093460E+00,,,-56.59851,-141.298740416,-68.0385517241
66,166.304000139,+1.57093090E+00,,,-56.57393,-143.492059146,-68.0365024631
67,168.769000053,+1.57093460E+00,,,-56.51796,-145.696089814,-68.0352216749
68,171.235000134,+1.57092960E+00,,,-56.50461,-147.893318729,-68.0382955665
69,173.700999975,+1.57092960E+00,,,-56.4628,-150.091270537,-68.033044335
70,176.166000128,+1.57092590E+00,,,-56.4385,-152.287776561,-68.0385517241
71,178.631000042,+1.57092840E+00,,,-56.4596,-154.48803943,-68.0370147783
72,181.095999956,+1.57093090E+00,,,-56.43742,-156.68584885,-68.0367586207
73,183.562000036,+1.57093090E+00,,,-56.41844,-158.883362541,-68.0357339901
74,186.02699995,+1.57092960E+00,,,-56.41899,-161.086078861,-68.0382955665
75,188.493000031,+1.57093090E+00,,,-56.39841,-162.894731654,-68.0367586207
76,190.959000111,+1.57093460E+00,,,-56.34619,-165.103822563,-68.0367586207
77,193.424000025,+1.57093330E+00,,,-56.30653,-167.296998905,-68.031635468
78,195.888999939,+1.57093830E+00,,,-56.29583,-169.499572837,-68.035862069
79,198.354000092,+1.57092960E+00,,,-56.30144,-171.691905805,-68.0381674877
80,200.819000006,+1.57093330E+00,,,-56.26726,-173.891730559,-68.039320197
81,203.28399992,+1.57093090E+00,,,-56.29117,-176.089824754,-68.035862069
82,205.75,+1.57093460E+00,,,-56.3494,-178.294863089,-68.038679803
83,208.217000008,+1.57093580E+00,,,-56.386,-180.492957284,-68.0361182266
84,210.681999922,+1.57093090E+00,,,-56.40469,-182.692212486,-68.0327881773
85,213.147000074,+1.57093580E+00,,,-56.42461,-184.888127054,-68.027408867
86,215.611999989,+1.57092840E+00,,,-56.44704,-187.092738226,-68.0249753695
87,218.078000069,+1.57092960E+00,,,-56.44384,-188.900952903,-68.0270246305
88,220.542999983,+1.57093330E+00,,,-56.44784,-191.096002191,-68.0270246305
89,223.006999969,+1.57093210E+00,,,-56.42152,-193.295837897,-68.0303546798
90,225.47300005,+1.57093330E+00,,,-56.43529,-195.495531216,-68.0221576355
91,227.937999964,+1.57092840E+00,,,-56.50621,-197.701303395,-68.0230541872
92,230.404000044,+1.57093090E+00,,,-56.54333,-199.896495071,-68.0289458128
93,232.870000124,+1.57093460E+00,,,-56.56685,-202.100821468,-68.0286896552
94,235.335000038,+1.57093090E+00,,,-56.62694,-204.291675794,-68.0251034483
95,237.801000118,+1.57093210E+00,,,-56.64671,-206.493504929,-68.0294581281
96,240.266000032,+1.57093090E+00,,,-56.68638,-208.685815991,-68.0283054187
97,242.732000113,+1.57093330E+00,,,-56.69707,-210.893461117,-68.0338128079
98,245.197000027,+1.57092960E+00,,,-56.66395,-212.701818182,-68.0293300493
99,247.663000107,+1.57093210E+00,,,-56.70562,-214.897601314,-68.0325320197
100,250.127000093,+1.57093090E+00,,,-56.68132,-217.095553122,-68.0303546798
101,252.592999935,+1.57093330E+00,,,-56.6781,-219.291489595,-68.0311231527
