Counter,Time(s),Temperature Voltage(V),Magnet Current(A),Field Coil Current(mA),SQUID Voltage(uV),Mod Current(uA),Pickup Loop Current(uA),
0,0.00800013542175,+1.57082670E+00,,,-36.40728,-0.00516352683461,-41.9576059113
1,3.91600012779,+1.57080940E+00,,,-36.27719,-2.16263384447,-41.955044335
2,6.44400000572,+1.57081310E+00,,,-36.15819,-4.3286686747,-41.9565812808
3,8.97300004959,+1.57081680E+00,,,-36.019,-6.46630120482,-41.9532512315
4,11.5010001659,+1.57083050E+00,,,-35.9287,-8.67073866375,-41.9540197044
5,14.0300002098,+1.57081430E+00,,,-35.85766,-10.8279123768,-41.9535073892
6,16.5360000134,+1.57082670E+00,,,-35.79621,-12.9772168675,-41.9541477833
7,19.0410001278,+1.57082670E+00,,,-35.79823,-15.1611391019,-41.9540197044
8,21.5480000973,+1.57081060E+00,,,-35.73652,-17.3173592552,-41.9538916256
9,24.0540001392,+1.57080320E+00,,,-35.64047,-19.4694107338,-41.9542758621
10,26.5600001812,+1.57081430E+00,,,-35.55661,-21.6227634173,-41.9504334975
11,29.0670001507,+1.57081310E+00,,,-35.62726,-23.7584709748,-41.952226601
12,31.5740001202,+1.57082670E+00,,,-35.75574,-25.9590109529,-41.955044335
13,34.0810000896,+1.57080200E+00,,,-35.8666,-28.2086768894,-41.9531231527
14,36.5870001316,+1.57081190E+00,,,-35.85713,-30.3619288061,-41.9531231527
15,39.0940001011,+1.57082670E+00,,,-35.8041,-32.5169014239,-41.9535073892
16,41.6000001431,+1.57080690E+00,,,-35.75761,-34.6730438116,-41.955044335
17,44.106000185,+1.57081680E+00,,,-35.79595,-36.8265115005,-41.9563251232
18,46.6130001545,+1.57080690E+00,,,-35.80449,-38.9474315444,-41.9547881773
19,49.120000124,+1.57081930E+00,,,-35.88237,-41.1023307777,-41.952226601
20,51.6260001659,+1.57081810E+00,,,-35.89933,-43.3211106243,-41.9524827586
21,54.1330001354,+1.57081810E+00,,,-35.95102,-45.3784370208,-41.953635468
22,56.6390001774,+1.57081060E+00,,,-35.93887,-47.565101862,-41.955044335
23,59.1450002193,+1.57084410E+00,,,-35.88397,-49.7844435926,-41.9535073892
24,61.6520001888,+1.57085530E+00,,,-35.8459,-51.9703559693,-41.9513300493
25,64.1579999924,+1.57082550E+00,,,-35.90721,-54.1586100767,-41.9519704433
26,66.6650002003,+1.57080570E+00,,,-35.91295,-56.7434665936,-41.9487684729
27,69.1720001698,+1.57081190E+00,,,-35.88665,-58.9423384447,-41.9503054187
28,71.6790001392,+1.57080820E+00,,,-35.79101,-61.1442913472,-41.9499211823
29,74.1850001812,+1.57081190E+00,,,-35.8634,-62.9570777656,-41.9509458128
30,76.6910002232,+1.57080690E+00,,,-35.82975,-65.1574665936,-41.9495369458
31,79.1970000267,+1.57082550E+00,,,-35.79221,-67.3678751369,-41.9473596059
32,82.0420000553,+1.57082550E+00,,,-35.68081,-69.5701905805,-41.9497931034
33,84.5500001907,+1.57080690E+00,,,-35.74707,-71.7691325301,-41.9496650246
34,87.0559999943,+1.57081430E+00,,,-35.83416,-73.9711259584,-41.9477438424
35,89.5620000362,+1.57082430E+00,,,-35.83709,-76.1708170865,-41.9483842365
36,92.0690000057,+1.57081310E+00,,,-35.87048,-78.3717393209,-41.9505615764
37,94.5750000477,+1.57081430E+00,,,-35.82546,-80.5749014239,-41.9504334975
38,97.0820000172,+1.57081810E+00,,,-35.81318,-82.7788893757,-41.9471034483
39,99.5890002251,+1.57082430E+00,,,-35.84164,-84.9803176342,-41.9520985222
40,102.096000195,+1.57080690E+00,,,-35.85938,-87.1811259584,-41.9527389163
41,104.601999998,+1.57081060E+00,,,-35.90546,-88.928286966,-41.9519704433
42,107.107000113,+1.57081310E+00,,,-35.91269,-91.1282365827,-41.9492807882
43,109.614000082,+1.57081060E+00,,,-35.95502,-93.3308915663,-41.9492807882
44,112.120000124,+1.57081680E+00,,,-36.07043,-95.5333844469,-41.9492807882
45,114.626000166,+1.57081430E+00,,,-36.07109,-97.7363263965,-41.9503054187
46,117.132000208,+1.57080690E+00,,,-36.10196,-100.005447974,-41.948
47,119.639000177,+1.57081560E+00,,,-36.11798,-102.207086528,-41.9500492611
48,122.146000147,+1.57081190E+00,,,-36.12732,-104.404409639,-41.9503054187
49,124.652000189,+1.57080940E+00,,,-36.07751,-106.604934283,-41.9485123153
50,127.157999992,+1.57082050E+00,,,-36.02248,-108.805877327,-41.9458226601
51,129.664000034,+1.57082550E+00,,,-35.98014,-111.281993428,-41.9454384236
52,132.130000114,+1.57082800E+00,,,-35.92511,-113.08992333,-41.948
53,134.595000029,+1.57081560E+00,,,-35.88891,-115.28441402,-41.9453103448
54,137.062000036,+1.57081930E+00,,,-35.85164,-117.478455641,-41.9528669951
55,139.527000189,+1.57081430E+00,,,-35.78607,-119.679145674,-41.9426206897
56,141.993000031,+1.57081680E+00,,,-35.88678,-121.881007667,-41.9467192118
57,144.458000183,+1.57081930E+00,,,-36.05334,-124.071861993,-41.9446699507
58,146.924000025,+1.57081560E+00,,,-36.14082,-126.272124863,-41.9441576355
59,149.389000177,+1.57081190E+00,,,-36.10395,-128.470799562,-41.9487684729
60,151.854000092,+1.57081430E+00,,,-36.12158,-130.676856517,-41.9446699507
61,154.320000172,+1.57080320E+00,,,-36.20131,-132.886823658,-41.9454384236
62,156.785000086,+1.57081930E+00,,,-36.38403,-135.085202629,-41.9441576355
63,159.25,+1.57081810E+00,,,-36.38979,-137.282880613,-41.9421083744
64,161.71600008,+1.57081560E+00,,,-36.4265,-139.093406353,-41.9364729064
65,164.180999994,+1.57081930E+00,,,-36.54992,-141.287020811,-41.9426206897
66,166.646000147,+1.57082300E+00,,,-36.55768,-143.484238773,-41.9415960591
67,169.111000061,+1.57081560E+00,,,-36.61817,-145.688127054,-41.9413399015
68,171.576000214,+1.57082050E+00,,,-36.71555,-147.883329682,-41.940955665
69,174.041000128,+1.57080940E+00,,,-36.75227,-150.080996714,-41.9439014778
70,176.506000042,+1.57082180E+00,,,-36.72837,-152.274600219,-41.9404433498
71,178.972000122,+1.57080940E+00,,,-36.75321,-154.475158817,-41.9387783251
72,181.436000109,+1.57080820E+00,,,-36.76897,-156.673099671,-41.9426206897
73,183.902000189,+1.57081430E+00,,,-36.75949,-158.870613363,-41.9415960591
74,186.367000103,+1.57081430E+00,,,-36.72034,-161.069134721,-41.939546798
75,188.834000111,+1.57081930E+00,,,-36.64396,-162.876626506,-41.9398029557
76,191.299000025,+1.57081680E+00,,,-36.6859,-165.090361446,-41.9374975369
77,193.764000177,+1.57081060E+00,,,-36.6095,-167.280350493,-41.9357044335
78,196.230000019,+1.57082430E+00,,,-36.58397,-169.486834611,-41.9405714286
79,198.695000172,+1.57081560E+00,,,-36.42343,-171.684085433,-41.9408275862
80,201.160000086,+1.57080940E+00,,,-36.3262,-173.878992333,-41.9364729064
81,203.625,+1.57081310E+00,,,-36.27465,-176.075640745,-41.9382660099
82,206.092000008,+1.57081060E+00,,,-36.15939,-178.281982475,-41.9378817734
83,208.55700016,+1.57080820E+00,,,-36.04492,-180.478192771,-41.9398029557
84,211.022000074,+1.57081430E+00,,,-35.97438,-182.679474261,-41.936729064
85,213.487000227,+1.57081560E+00,,,-35.85993,-184.873504929,-41.9364729064
86,215.952000141,+1.57081680E+00,,,-35.78753,-187.077097481,-41.9344236453
87,218.417000055,+1.57081680E+00,,,-35.87703,-188.886911281,-41.9336551724
88,220.882000208,+1.57081680E+00,,,-35.92992,-191.08109529,-41.9369852217
89,223.349000216,+1.57081190E+00,,,-35.9223,-193.283822563,-41.9359605911
90,225.81400013,+1.57081430E+00,,,-35.86982,-195.48279299,-41.9389064039
91,228.279000044,+1.57080820E+00,,,-35.85927,-197.683493976,-41.9341674877
92,230.745000124,+1.57081560E+00,,,-35.8045,-199.880284775,-41.9326305419
93,233.210000038,+1.57080440E+00,,,-35.70406,-202.083877327,-41.936729064
94,235.676000118,+1.57081810E+00,,,-35.63606,-204.277196057,-41.9331428571
95,238.141000032,+1.57081430E+00,,,-35.53751,-206.473964951,-41.933270936
96,240.607000113,+1.57080940E+00,,,-35.50866,-208.670317634,-41.933270936
97,243.073000193,+1.57081430E+00,,,-35.4778,-210.877097481,-41.9322463054
98,245.538000107,+1.57081430E+00,,,-35.52747,-212.683581599,-41.9299408867
99,248.003000021,+1.57081810E+00,,,-35.52682,-214.880657174,-41.9317339901
100,250.468000174,+1.57082920E+00,,,-35.50919,-217.078466594,-41.9301970443
101,252.933000088,+1.57080820E+00,,,-35.7265,-219.27788609,-41.9295566502
