Counter,Time(s),Temperature Voltage(V),Magnet Current(A),Field Coil Current(mA),SQUID Voltage(uV),Mod Current(uA),Pickup Loop Current(uA),
0,0.00699996948242,+1.57112300E+00,,,-33.13051,-0.011386966046,-55.0071724138
1,3.91499996185,+1.57112050E+00,,,-32.99908,-2.12688389923,-55.0030738916
2,6.44400000572,+1.57112420E+00,,,-32.84667,-4.2568305586,-55.0076847291
3,8.97199988365,+1.57110940E+00,,,-32.7445,-6.3718746988,-55.005635468
4,11.5,+1.57110320E+00,,,-32.6446,-8.48840284775,-55.0040985222
5,14.0279998779,+1.57112300E+00,,,-32.58409,-10.6350700986,-55.0071724138
6,16.5339999199,+1.57110190E+00,,,-32.45559,-12.7325739321,-55.0096059113
7,19.0399999619,+1.57112420E+00,,,-32.40391,-14.8929025192,-55.0035862069
8,21.5460000038,+1.57111800E+00,,,-32.50928,-16.9924874042,-55.0053793103
9,24.0539999008,+1.57111180E+00,,,-32.52813,-19.0894556407,-55.0069162562
10,26.5599999428,+1.57111060E+00,,,-32.65795,-21.2045038335,-55.0053793103
11,29.0659999847,+1.57111060E+00,,,-32.76708,-23.3011829135,-55.002817734
12,31.5720000267,+1.57110320E+00,,,-32.94205,-25.4968050383,-55.0048669951
13,34.0779998302,+1.57112550E+00,,,-33.14908,-27.6231949617,-55.0010246305
14,36.5850000381,+1.57112300E+00,,,-33.3788,-29.742422782,-55.0038423645
15,39.0920000076,+1.57113540E+00,,,-33.63831,-31.8270635268,-55.0017931034
16,41.5989999771,+1.57112180E+00,,,-33.82571,-33.9491708653,-54.9994876847
17,44.1059999466,+1.57111930E+00,,,-34.07227,-36.0342026287,-55.0020492611
18,46.6119999886,+1.57110320E+00,,,-34.27262,-38.1502738226,-54.9997438424
19,49.118999958,+1.57112420E+00,,,-34.53306,-40.2339299014,-55.002817734
20,51.625,+1.57111930E+00,,,-34.70456,-42.4491653888,-54.9987192118
21,54.1309998035,+1.57113040E+00,,,-34.99388,-44.5330536692,-55.0002561576
22,56.6369998455,+1.57111310E+00,,,-35.25726,-46.6492135816,-54.9989753695
23,59.143999815,+1.57111060E+00,,,-35.58143,-48.735456736,-55.0012807882
24,61.6499998569,+1.57112550E+00,,,-34.44773,-50.853958379,-55.0033300493
25,64.1559998989,+1.57111930E+00,,,-34.18152,-52.9387119387,-55.0017931034
26,66.6619999409,+1.57111310E+00,,,-33.93484,-55.2131215772,-54.9966699507
27,69.1689999104,+1.57112180E+00,,,-33.70043,-57.460279299,-55.0
28,71.6740000248,+1.57112050E+00,,,-33.45854,-59.5168258488,-55.0023054187
29,74.1809999943,+1.57112670E+00,,,-33.38948,-61.6325498357,-54.9984630542
30,76.6879999638,+1.57112050E+00,,,-33.28331,-63.7536254107,-54.9961576355
31,79.1940000057,+1.57110810E+00,,,-33.12396,-65.8790821468,-54.9989753695
32,81.6999998093,+1.57112420E+00,,,-33.07668,-67.9363450164,-54.9984630542
33,84.2079999447,+1.57112050E+00,,,-32.85214,-70.056694414,-54.9994876847
34,86.7129998207,+1.57111180E+00,,,-32.90452,-72.1788280394,-55.0005123153
35,89.2189998627,+1.57111930E+00,,,-32.81649,-74.3629123768,-54.9987192118
36,91.7249999046,+1.57113040E+00,,,-32.80593,-76.4888587076,-54.9964137931
37,94.2329998016,+1.57111680E+00,,,-32.91827,-78.6062562979,-54.9959014778
38,96.7389998436,+1.57112050E+00,,,-33.0672,-80.7319989047,-54.9928275862
39,99.2459998131,+1.57113540E+00,,,-35.29146,-82.7930219058,-54.9933399015
40,101.751999855,+1.57112790E+00,,,-35.54243,-84.9155881709,-54.9935960591
41,104.258999825,+1.57113170E+00,,,-35.81782,-87.0324622125,-54.9951330049
42,106.763999939,+1.57111800E+00,,,-36.13359,-88.8995301205,-54.9953891626
43,109.270999908,+1.57112180E+00,,,-36.43691,-91.531958379,-54.9933399015
44,111.777999878,+1.57110940E+00,,,-36.64808,-93.2652749179,-54.992955665
45,114.28399992,+1.57112670E+00,,,-36.97785,-95.9006670318,-54.9960295567
46,116.789999962,+1.57113040E+00,,,-37.12183,-97.6341982475,-54.9941083744
47,119.296000004,+1.57111180E+00,,,-37.22708,-99.4313866375,-54.9907783251
48,121.802999973,+1.57112790E+00,,,-37.43505,-102.006210296,-54.9939802956
49,124.309000015,+1.57111180E+00,,,-37.55365,-103.800353779,-54.9932118227
50,126.814999819,+1.57112420E+00,,,-37.80047,-106.435165389,-54.9925714286
51,129.322999954,+1.57110940E+00,,,-37.97691,-108.166698795,-54.9930837438
52,131.830999851,+1.57112550E+00,,,-38.09285,-109.902015334,-54.9946206897
53,134.296000004,+1.57112050E+00,,,-38.34022,-113.246714129,-54.9984630542
54,136.761999846,+1.57111430E+00,,,-38.52519,-115.055377875,-54.9950049261
55,139.226999998,+1.57113660E+00,,,-38.66652,-117.63769989,-54.9920591133
56,141.691999912,+1.57112180E+00,,,-38.78805,-119.452289157,-54.9941083744
57,144.157999992,+1.57112420E+00,,,-38.91802,-122.035334064,-54.9959014778
58,146.625,+1.57111930E+00,,,-39.06774,-123.843702081,-54.9989753695
59,149.090999842,+1.57111680E+00,,,-39.19544,-125.652497262,-54.9959014778
60,151.554999828,+1.57110940E+00,,,-39.28838,-128.237721796,-54.9956453202
61,154.020999908,+1.57113170E+00,,,-39.35196,-130.048105148,-54.9946206897
62,156.486999989,+1.57111930E+00,,,-39.44453,-132.650985761,-54.9987192118
63,158.951999903,+1.57111180E+00,,,-39.46176,-134.45645126,-54.9938522167
64,161.416999817,+1.57112180E+00,,,-39.46042,-136.13871851,-54.9956453202
65,163.883999825,+1.57111310E+00,,,-39.44974,-138.85728368,-54.9941083744
66,166.348999977,+1.57112550E+00,,,-39.41567,-140.529857612,-54.9941083744
67,168.814999819,+1.57112420E+00,,,-39.22402,-143.248554217,-54.9994876847
68,171.279999971,+1.57110940E+00,,,-39.17899,-144.926473165,-54.9969261084
69,173.744999886,+1.57112050E+00,,,-39.15202,-146.731511501,-54.9961576355
70,176.210000038,+1.57111800E+00,,,-39.05371,-149.321084337,-54.9925714286
71,178.67599988,+1.57110440E+00,,,-38.92936,-151.122201533,-54.9966699507
72,181.14199996,+1.57112180E+00,,,-38.73704,-153.711478642,-54.994364532
73,183.607999802,+1.57110940E+00,,,-38.5801,-155.522738226,-54.9979507389
74,186.072999954,+1.57111800E+00,,,-38.47846,-158.23347207,-54.9961576355
75,188.537999868,+1.57111310E+00,,,-38.32619,-159.90966046,-54.9925714286
76,191.003999949,+1.57112920E+00,,,-38.29813,-161.722212486,-54.9964137931
77,193.470000029,+1.57112550E+00,,,-38.07027,-164.308729463,-54.9964137931
78,195.934000015,+1.57112050E+00,,,-37.89944,-166.12245345,-54.9966699507
79,198.401000023,+1.57111800E+00,,,-37.58651,-168.705783133,-54.9956453202
80,200.866999865,+1.57112180E+00,,,-37.34982,-170.519507119,-54.9953891626
81,203.332000017,+1.57111680E+00,,,-37.17098,-172.201500548,-54.997182266
82,205.796999931,+1.57110940E+00,,,-36.97839,-174.910503834,-54.9941083744
83,208.261999846,+1.57113040E+00,,,-36.84643,-176.720021906,-54.9933399015
84,210.727999926,+1.57110560E+00,,,-36.59251,-179.304085433,-54.9964137931
85,213.194000006,+1.57111680E+00,,,-36.36277,-181.115049288,-54.9907783251
86,215.659999847,+1.57112790E+00,,,-36.06026,-183.695049288,-54.9964137931
87,218.125,+1.57110690E+00,,,-35.87753,-185.506593647,-54.991546798
88,220.590999842,+1.57111560E+00,,,-35.70658,-187.188138007,-54.9956453202
89,223.055999994,+1.57111800E+00,,,-35.46937,-189.896122673,-54.9933399015
90,225.520999908,+1.57113170E+00,,,-35.29706,-191.578828039,-54.9930837438
91,227.986999989,+1.57111680E+00,,,-35.02044,-194.29347207,-54.9941083744
92,230.451999903,+1.57111930E+00,,,-34.81851,-195.975027382,-54.9953891626
93,232.917999983,+1.57111560E+00,,,-34.61923,-197.787875137,-54.9935960591
94,235.383999825,+1.57111430E+00,,,-34.37479,-200.370054765,-54.9964137931
95,237.848999977,+1.57111180E+00,,,-34.15389,-202.184786418,-54.9889852217
96,240.314999819,+1.57112300E+00,,,-33.90277,-204.76652793,-54.991546798
97,242.778999805,+1.57112420E+00,,,-33.80194,-206.571248631,-54.9918029557
98,245.243999958,+1.57112050E+00,,,-33.6653,-208.376429354,-54.9923152709
99,247.710999966,+1.57111800E+00,,,-33.55003,-210.966571742,-54.9900098522
100,250.17599988,+1.57111430E+00,,,-33.46349,-212.774063527,-54.9938522167
101,252.641000032,+1.57113290E+00,,,-33.38534,-215.358554217,-54.9925714286
102,255.106999874,+1.57112420E+00,,,-33.28237,-217.165914567,-54.9950049261
103,257.572999954,+1.57111680E+00,,,-33.23147,-219.7567908,-54.9914187192
104,260.037999868,+1.57112670E+00,,,-33.29759,-222.114424973,-54.9871921182
105,262.503000021,+1.57112180E+00,,,-33.3549,-223.912946331,-54.9907783251
106,264.968999863,+1.57111180E+00,,,-33.46227,-226.492081051,-54.9905221675
107,267.434999943,+1.57112790E+00,,,-33.52599,-228.305082147,-54.9897536946
108,269.90199995,+1.57111310E+00,,,-33.73957,-230.873778751,-54.9935960591
109,272.366999865,+1.57112920E+00,,,-33.86898,-232.67837897,-54.9892413793
110,274.832000017,+1.57111800E+00,,,-34.14026,-234.487185104,-54.9912906404
111,277.296000004,+1.57111430E+00,,,-34.39484,-237.068488499,-54.9871921182
112,279.761999846,+1.57113410E+00,,,-34.57862,-238.875837897,-54.9779605911
113,282.227999926,+1.57112550E+00,,,-34.75747,-241.456002191,-54.978729064
114,284.69299984,+1.57111680E+00,,,-34.96689,-243.260460022,-54.9869359606
115,287.15899992,+1.57112920E+00,,,-35.17139,-245.065783133,-54.9925714286
116,289.625,+1.57112180E+00,,,-35.5149,-247.64245345,-54.9921871921
117,292.089999914,+1.57111560E+00,,,-35.69335,-249.459211391,-54.9882167488
118,294.555999994,+1.57110810E+00,,,-36.01578,-252.032398686,-54.988729064
119,297.020999908,+1.57111930E+00,,,-36.2045,-253.840032859,-54.9907783251
120,299.485999823,+1.57111680E+00,,,-36.44265,-256.422070099,-54.9956453202
121,301.950999975,+1.57112920E+00,,,-36.58744,-258.236516977,-54.9970541872
122,304.417999983,+1.57111060E+00,,,-36.72328,-260.034884995,-55.0012807882
123,306.882999897,+1.57111800E+00,,,-36.97664,-262.619956188,-54.9969261084
124,309.347999811,+1.57111560E+00,,,-37.14279,-264.456834611,-54.9992315271
125,311.813999891,+1.57113040E+00,,,-37.38322,-267.034961665,-54.994364532
