Counter,Time(s),Temperature Voltage(V),Magnet Current(A),Field Coil Current(mA),SQUID Voltage(uV),Mod Current(uA),Pickup Loop Current(uA),
0,0.007000207901,+1.57098420E+00,,,-35.68773,-0.00591401971522,-48.461320197
1,3.91600012779,+1.57098540E+00,,,-35.66851,-2.16859408543,-48.4623448276
2,6.44400000572,+1.57098170E+00,,,-35.68814,-4.33330153341,-48.4586305419
3,8.97300004959,+1.57098040E+00,,,-35.72139,-6.47300470975,-48.4670837438
4,11.5010001659,+1.57098040E+00,,,-35.73982,-8.66272661555,-48.4597832512
5,14.0290000439,+1.57098660E+00,,,-35.76347,-10.8192464403,-48.4596551724
6,16.5370001793,+1.57098790E+00,,,-35.80434,-12.9646177437,-48.4601674877
7,19.0429999828,+1.57098790E+00,,,-35.85496,-15.1737382256,-48.4605517241
8,21.5500001907,+1.57098420E+00,,,-35.9399,-17.3303636364,-48.4623448276
9,24.0570001602,+1.57098540E+00,,,-36.02967,-19.483211391,-48.4601674877
10,26.5630002022,+1.57098660E+00,,,-36.1134,-21.6378072289,-48.4609359606
11,29.0690000057,+1.57098290E+00,,,-36.18607,-23.7749178532,-48.4604236453
12,31.5760002136,+1.57098420E+00,,,-36.27983,-25.977135816,-48.4560689655
13,34.0830001831,+1.57098040E+00,,,-36.41552,-28.2419047097,-48.4563251232
14,36.5889999866,+1.57098660E+00,,,-36.50488,-30.3960536692,-48.4593990148
15,39.0960001945,+1.57098290E+00,,,-36.65461,-32.5523274918,-48.4588866995
16,41.6010000706,+1.57098540E+00,,,-36.75545,-34.7093964951,-48.4546600985
17,44.1070001125,+1.57098540E+00,,,-36.87006,-36.8639638554,-48.4590147783
18,46.614000082,+1.57098660E+00,,,-37.01498,-38.9850284775,-48.4586305419
19,49.120000124,+1.57098170E+00,,,-37.13358,-41.1413592552,-48.4581182266
20,51.6270000935,+1.57098290E+00,,,-37.2491,-43.3616440307,-48.4582463054
21,54.1340000629,+1.57098660E+00,,,-37.38067,-45.4196637459,-48.4604236453
22,56.6400001049,+1.57098660E+00,,,-37.5085,-47.6062420591,-48.455044335
23,59.1470000744,+1.57098790E+00,,,-37.62055,-49.8256560789,-48.4588866995
24,61.6530001163,+1.57098540E+00,,,-37.70336,-52.0115837897,-48.4581182266
25,64.1600000858,+1.57098540E+00,,,-37.81423,-54.1994895947,-48.4587586207
26,66.6650002003,+1.57098790E+00,,,-37.92869,-56.754736035,-48.4565812808
27,69.1730000973,+1.57098040E+00,,,-38.035,-58.9564709748,-48.4579901478
28,71.6800000668,+1.57098420E+00,,,-38.13958,-61.1597842278,-48.4581182266
29,74.1870000362,+1.57098290E+00,,,-38.22106,-62.971905805,-48.457862069
30,76.6930000782,+1.57097800E+00,,,-38.29362,-65.1751730559,-48.4601674877
31,79.1990001202,+1.57098420E+00,,,-38.36108,-67.3839079956,-48.4576059113
32,81.7050001621,+1.57098660E+00,,,-38.45792,-69.587101862,-48.4576059113
33,84.2120001316,+1.57098170E+00,,,-38.53111,-71.788415115,-48.4590147783
34,86.7210001945,+1.57098420E+00,,,-38.57879,-73.991898138,-48.4576059113
35,89.2269999981,+1.57098170E+00,,,-38.61392,-76.1913001095,-48.4551724138
36,91.7320001125,+1.57098540E+00,,,-38.64424,-78.3919627601,-48.4588866995
37,94.2380001545,+1.57098040E+00,,,-38.63917,-80.5940536692,-48.4576059113
38,96.745000124,+1.57098040E+00,,,-38.68672,-82.7979550931,-48.455044335
39,99.2510001659,+1.57098170E+00,,,-38.67924,-85.0012059146,-48.4524827586
40,101.757000208,+1.57097800E+00,,,-38.69432,-87.2017097481,-48.4569655172
41,104.263000011,+1.57098420E+00,,,-38.66374,-88.9485969332,-48.4553004926
42,106.768000126,+1.57098420E+00,,,-38.6437,-91.1486046002,-48.4553004926
43,109.275000095,+1.57098660E+00,,,-38.60243,-93.3519386637,-48.4541477833
44,111.781000137,+1.57098540E+00,,,-38.5617,-95.5524786418,-48.4545320197
45,114.287000179,+1.57098540E+00,,,-38.5219,-97.7557393209,-48.4532512315
46,116.794000149,+1.57098420E+00,,,-38.44869,-100.024441402,-48.4570935961
47,119.300000191,+1.57098170E+00,,,-38.36482,-102.225009858,-48.4547881773
48,121.808000088,+1.57099160E+00,,,-38.30039,-104.425992333,-48.4545320197
49,124.315000057,+1.57098540E+00,,,-38.22775,-106.627934283,-48.4559408867
50,126.821000099,+1.57098910E+00,,,-38.14253,-108.828675794,-48.4501674877
51,129.327000141,+1.57098540E+00,,,-37.99881,-111.295892662,-48.4588866995
52,131.791000128,+1.57098660E+00,,,-37.89757,-113.102234392,-48.4559408867
53,134.257000208,+1.57099280E+00,,,-37.80248,-115.297437021,-48.4587586207
54,136.722000122,+1.57098910E+00,,,-37.68773,-117.496549836,-48.4563251232
55,139.188000202,+1.57098660E+00,,,-37.58249,-119.695947426,-48.4565812808
56,141.654000044,+1.57099040E+00,,,-37.42928,-121.896352683,-48.4540197044
57,144.119000196,+1.57098660E+00,,,-37.31282,-124.089956188,-48.4558128079
58,146.584000111,+1.57098540E+00,,,-37.17806,-126.29109529,-48.4565812808
59,149.050000191,+1.57098540E+00,,,-37.05958,-128.492081051,-48.4451724138
60,151.515000105,+1.57099040E+00,,,-36.96862,-130.696407448,-48.4523546798
61,153.980000019,+1.57098790E+00,,,-36.809,-132.904337349,-48.4528669951
62,156.447000027,+1.57098910E+00,,,-36.67812,-135.103307777,-48.4542758621
63,158.913000107,+1.57098540E+00,,,-36.56672,-137.301259584,-48.4535073892
64,161.378000021,+1.57098660E+00,,,-36.49808,-139.111215772,-48.4537635468
65,163.843000174,+1.57098790E+00,,,-36.38027,-141.311631982,-48.4558128079
66,166.309000015,+1.57098420E+00,,,-36.31122,-143.507842278,-48.44991133
67,168.774000168,+1.57098540E+00,,,-36.24002,-145.710996714,-48.4538916256
68,171.239000082,+1.57099040E+00,,,-36.13531,-147.907064622,-48.4496551724
69,173.705000162,+1.57099040E+00,,,-36.06546,-150.105027382,-48.44991133
70,176.170000076,+1.57098660E+00,,,-35.98479,-152.300799562,-48.4533793103
71,178.63499999,+1.57098790E+00,,,-35.92775,-154.50483023,-48.4486305419
72,181.101000071,+1.57098290E+00,,,-35.90531,-156.69728368,-48.4532512315
73,183.565999985,+1.57098540E+00,,,-35.8559,-158.89754655,-48.4488866995
74,186.032000065,+1.57099040E+00,,,-35.83987,-161.09577218,-48.4540197044
75,188.497000217,+1.57099160E+00,,,-35.83037,-162.905870756,-48.4538916256
76,190.963999987,+1.57099040E+00,,,-35.8185,-165.112508215,-48.4502955665
77,193.429000139,+1.57099040E+00,,,-35.84988,-167.309594743,-48.4524827586
78,195.894000053,+1.57098910E+00,,,-35.87806,-169.513187295,-48.44991133
79,198.360000134,+1.57099160E+00,,,-35.883,-171.706955093,-48.4493990148
80,200.82400012,+1.57098540E+00,,,-35.95886,-173.906352683,-48.453635468
81,203.2900002,+1.57098910E+00,,,-36.00375,-176.102858708,-48.4505517241
82,205.756000042,+1.57099280E+00,,,-36.03808,-178.309638554,-48.4529950739
83,208.222000122,+1.57098660E+00,,,-36.14306,-180.507437021,-48.4485024631
84,210.687000036,+1.57099040E+00,,,-36.21705,-182.703504929,-48.4523546798
85,213.153000116,+1.57098040E+00,,,-36.27302,-184.90245345,-48.4469655172
86,215.618000031,+1.57099040E+00,,,-36.39963,-187.107502738,-48.4496551724
87,218.084000111,+1.57099530E+00,,,-36.47056,-188.91803943,-48.44991133
88,220.550000191,+1.57099780E+00,,,-36.58702,-191.110920044,-48.4501674877
89,223.015000105,+1.57099280E+00,,,-36.68012,-193.310460022,-48.4496551724
90,225.481000185,+1.57099040E+00,,,-36.82692,-195.511171961,-48.4483743842
91,227.947000027,+1.57099160E+00,,,-36.93029,-197.714326396,-48.449270936
92,230.412000179,+1.57099780E+00,,,-37.07132,-199.914600219,-48.4447881773
93,232.878000021,+1.57099280E+00,,,-37.17031,-202.115870756,-48.447862069
94,235.343000174,+1.57098910E+00,,,-37.29599,-204.31135816,-48.450679803
95,237.808000088,+1.57098910E+00,,,-37.42515,-206.510876232,-48.4458128079
96,240.273000002,+1.57099530E+00,,,-37.52186,-208.70347207,-48.4487586207
97,242.739000082,+1.57099780E+00,,,-37.63217,-210.903307777,-48.4453004926
98,245.203999996,+1.57099660E+00,,,-37.73889,-212.714709748,-48.4472216749
99,247.670000076,+1.57099410E+00,,,-37.85871,-214.915553122,-48.4488866995
100,250.13499999,+1.57099160E+00,,,-37.97463,-217.11075575,-48.4446600985
101,252.601000071,+1.57098910E+00,,,-38.09083,-219.308433735,-48.4465812808
