Counter,Time(s),Temperature Voltage(V),Magnet Current(A),Field Coil Current(mA),SQUID Voltage(uV),Mod Current(uA),Pickup Loop Current(uA),
0,0.00699996948242,+1.57111680E+00,,,-39.22497,-0.0115228915663,-46.28991133
1,3.91600012779,+1.57111430E+00,,,-39.20319,-2.12782814896,-46.2891428571
2,6.44400000572,+1.57111310E+00,,,-39.2084,-4.25522836802,-46.2891428571
3,8.97300004959,+1.57111680E+00,,,-39.16846,-6.36799518072,-46.2900394089
4,11.5,+1.57111680E+00,,,-39.2577,-8.44745038335,-46.2893990148
5,14.0269999504,+1.57111560E+00,,,-39.24287,-10.5879419496,-46.2868374384
6,16.5329999924,+1.57111430E+00,,,-39.23392,-12.677720701,-46.2891428571
7,19.0390000343,+1.57111310E+00,,,-39.25409,-14.9005695509,-46.2874778325
8,21.5450000763,+1.57112050E+00,,,-39.25209,-17.0000821468,-46.2838916256
9,24.0510001183,+1.57112050E+00,,,-39.31019,-19.0983373494,-46.286453202
10,26.5580000877,+1.57111180E+00,,,-39.32019,-21.2156429354,-46.2870935961
11,29.0650000572,+1.57111930E+00,,,-39.35894,-23.3164874042,-46.2895270936
12,31.5710000992,+1.57111430E+00,,,-39.36187,-25.5180405257,-46.2844039409
13,34.0759999752,+1.57111560E+00,,,-39.35078,-27.524973713,-46.2879901478
14,36.5829999447,+1.57111680E+00,,,-39.30044,-29.637966046,-46.2868374384
15,39.0889999866,+1.57111930E+00,,,-39.30524,-31.718441402,-46.2870935961
16,41.5950000286,+1.57111800E+00,,,-39.31913,-33.839101862,-46.286453202
17,44.1019999981,+1.57111430E+00,,,-39.34183,-35.9253340635,-46.2872216749
18,46.6080000401,+1.57111680E+00,,,-39.37643,-38.0467721796,-46.2847881773
19,49.114000082,+1.57111800E+00,,,-39.3377,-40.1430273823,-46.283635468
20,51.620000124,+1.57111560E+00,,,-39.33583,-42.3700821468,-46.2829950739
21,54.1259999275,+1.57111680E+00,,,-39.31912,-44.4609572837,-46.2809458128
22,56.6319999695,+1.57111680E+00,,,-39.3329,-46.5825564074,-46.2781280788
23,59.1380000114,+1.57112300E+00,,,-39.35038,-48.6745564074,-46.2814581281
24,61.6440000534,+1.57112050E+00,,,-39.33596,-50.8039507119,-46.2814581281
25,64.1500000954,+1.57111680E+00,,,-39.37415,-52.8971807229,-46.2823546798
26,66.6560001373,+1.57112050E+00,,,-39.32087,-55.2377426068,-46.2786403941
27,69.1619999409,+1.57111930E+00,,,-39.36749,-57.4800251917,-46.2796650246
28,71.6679999828,+1.57111930E+00,,,-39.38551,-59.5350963855,-46.2772315271
29,74.1740000248,+1.57112550E+00,,,-39.38672,-61.6501544359,-46.2756945813
30,76.6800000668,+1.57112180E+00,,,-39.38765,-63.7752946331,-46.2762068966
31,79.1870000362,+1.57112180E+00,,,-39.43666,-65.903354874,-46.276591133
32,81.6930000782,+1.57111800E+00,,,-39.49771,-67.9589989047,-46.2745418719
33,84.1990001202,+1.57111680E+00,,,-39.48808,-70.078075575,-46.2754384236
34,86.7049999237,+1.57112050E+00,,,-39.49317,-72.1980087623,-46.2768472906
35,89.2109999657,+1.57111800E+00,,,-39.46591,-74.3773351588,-46.2750541872
36,91.7179999352,+1.57111930E+00,,,-39.46351,-76.4959605696,-46.2795369458
37,94.2239999771,+1.57112180E+00,,,-39.31339,-78.6126363636,-46.2776157635
38,96.7309999466,+1.57112180E+00,,,-39.45323,-80.7326933187,-46.2740295567
39,99.2369999886,+1.57112300E+00,,,-39.4519,-82.7921248631,-46.2750541872
40,101.743000031,+1.57111930E+00,,,-39.48636,-84.9098598028,-46.2740295567
41,104.249000072,+1.57111930E+00,,,-39.51814,-87.0291642935,-46.2728768473
42,106.755000114,+1.57112180E+00,,,-39.51921,-88.8903154436,-46.2700591133
43,109.262000084,+1.57112180E+00,,,-39.53271,-91.5196330778,-46.2731330049
44,111.768000126,+1.57112050E+00,,,-39.5283,-93.2496089814,-46.2698029557
45,114.275000095,+1.57111930E+00,,,-39.51786,-95.8805158817,-46.2685221675
46,116.781000137,+1.57112180E+00,,,-39.50732,-97.6145826944,-46.2692906404
47,119.288000107,+1.57112180E+00,,,-39.52002,-99.4117426068,-46.2685221675
48,121.792999983,+1.57112550E+00,,,-39.53965,-101.977785323,-46.2722364532
49,124.299999952,+1.57112550E+00,,,-39.51961,-103.770945235,-46.2696748768
50,126.805999994,+1.57112180E+00,,,-39.54939,-106.403963855,-46.2715960591
51,129.312000036,+1.57111930E+00,,,-39.52415,-108.138288061,-46.2698029557
52,131.819000006,+1.57112420E+00,,,-39.54152,-109.870744797,-46.2699310345
53,134.28399992,+1.57111800E+00,,,-39.53163,-113.315487404,-46.2687783251
54,136.749000072,+1.57112050E+00,,,-39.48782,-115.120098576,-46.2671133005
55,139.215000153,+1.57112420E+00,,,-39.42864,-117.706319825,-46.2673694581
56,141.680000067,+1.57111930E+00,,,-39.46352,-119.519463308,-46.2649359606
57,144.144999981,+1.57111680E+00,,,-39.44615,-122.104972618,-46.2678817734
58,146.610000134,+1.57111680E+00,,,-39.45857,-123.91101862,-46.2668571429
59,149.075999975,+1.57111930E+00,,,-39.41356,-125.720690033,-46.2682660099
60,151.541000128,+1.57112050E+00,,,-39.38511,-128.309233297,-46.2676256158
61,154.006999969,+1.57112420E+00,,,-39.39086,-130.115136911,-46.2717241379
62,156.472000122,+1.57112300E+00,,,-39.37416,-132.717579409,-46.2676256158
63,158.937000036,+1.57111680E+00,,,-39.37588,-134.528696605,-46.2691625616
64,161.403000116,+1.57111800E+00,,,-39.39112,-136.208357065,-46.2651921182
65,163.867000103,+1.57112420E+00,,,-39.56381,-138.924030668,-46.2676256158
66,166.332999945,+1.57112050E+00,,,-39.45416,-140.597601314,-46.263270936
67,168.798000097,+1.57112420E+00,,,-39.68991,-143.315870756,-46.2657044335
68,171.263000011,+1.57111930E+00,,,-39.46698,-144.995531216,-46.2668571429
69,173.729000092,+1.57111560E+00,,,-39.49651,-146.803165389,-46.26391133
70,176.194000006,+1.57111560E+00,,,-39.5327,-149.388400876,-46.2627586207
71,178.65899992,+1.57111680E+00,,,-39.59334,-151.193866375,-46.2655763547
72,181.124000072,+1.57111930E+00,,,-39.57797,-153.782124863,-46.2612216749
73,183.590000153,+1.57112300E+00,,,-39.57678,-155.591500548,-46.2640394089
74,186.055000067,+1.57111930E+00,,,-39.60201,-158.3033954,-46.2640394089
75,188.521000147,+1.57112300E+00,,,-39.57504,-159.981314348,-46.2668571429
76,190.986999989,+1.57111680E+00,,,-39.5713,-161.793001095,-46.2683940887
77,193.452000141,+1.57111930E+00,,,-39.56997,-164.376046002,-46.2609655172
78,195.917000055,+1.57111800E+00,,,-39.6668,-166.19584885,-46.2630147783
79,198.381999969,+1.57111930E+00,,,-39.58051,-168.776002191,-46.2617339901
80,200.84800005,+1.57111800E+00,,,-39.57424,-170.591741512,-46.2594285714
81,203.31400013,+1.57111800E+00,,,-39.56262,-172.272584885,-46.2613497537
82,205.779000044,+1.57111800E+00,,,-39.49075,-174.978400876,-46.260453202
83,208.243999958,+1.57112050E+00,,,-39.48716,-176.784742607,-46.2598128079
84,210.709000111,+1.57112180E+00,,,-39.45416,-179.370240964,-46.2603251232
85,213.174000025,+1.57111930E+00,,,-39.44134,-181.180635268,-46.2603251232
86,215.640000105,+1.57111800E+00,,,-39.49222,-183.761642935,-46.2600689655
87,218.105000019,+1.57112300E+00,,,-39.49477,-185.575947426,-46.2562167488
88,220.569999933,+1.57112050E+00,,,-39.47875,-187.256911281,-46.2598128079
89,223.036000013,+1.57111930E+00,,,-39.53124,-189.959967141,-46.2598128079
90,225.5,+1.57111800E+00,,,-39.38792,-191.641226725,-46.2559605911
91,227.965000153,+1.57111800E+00,,,-39.10662,-194.356155531,-46.258137931
92,230.430000067,+1.57111680E+00,,,-39.17889,-196.034523549,-46.2536551724
93,232.896000147,+1.57111680E+00,,,-39.17382,-197.846648412,-46.2574975369
94,235.361999989,+1.57111930E+00,,,-39.13882,-200.433023001,-46.2571133005
95,237.828000069,+1.57112050E+00,,,-39.10863,-202.244863089,-46.25608867
96,240.292999983,+1.57111680E+00,,,-38.14469,-204.82864184,-46.2530147783
97,242.759000063,+1.57111800E+00,,,-39.06041,-206.635531216,-46.2533990148
98,245.22300005,+1.57111430E+00,,,-40.76778,-208.446352683,-46.2528866995
99,247.68900013,+1.57112180E+00,,,-39.5279,-211.033745893,-46.2535270936
100,250.154000044,+1.57111930E+00,,,-40.20053,-212.842836802,-46.2566009852
101,252.620000124,+1.57112180E+00,,,-39.32659,-215.427031763,-46.2551921182
102,255.085999966,+1.57111930E+00,,,-39.38321,-217.234392114,-46.2551921182
103,257.552000046,+1.57111930E+00,,,-39.30215,-219.824698795,-46.2509655172
104,260.01699996,+1.57112420E+00,,,-39.37134,-222.199989047,-46.2623743842
105,262.480999947,+1.57112180E+00,,,-39.33594,-223.999813801,-46.2498128079
106,264.947000027,+1.57112180E+00,,,-39.29188,-226.56837897,-46.2514778325
107,267.411999941,+1.57112300E+00,,,-39.35637,-228.390646221,-46.251862069
108,269.878000021,+1.57112050E+00,,,-39.37401,-230.95196057,-46.255320197
109,272.344000101,+1.57112180E+00,,,-39.34636,-232.76075575,-46.2527586207
110,274.809000015,+1.57112300E+00,,,-39.55031,-234.565794085,-46.2514778325
111,277.273999929,+1.57111800E+00,,,-39.57142,-237.148554217,-46.2517339901
112,279.739000082,+1.57111930E+00,,,-39.55365,-238.95271632,-46.2452019704
113,282.204999924,+1.57112180E+00,,,-39.56994,-241.53924425,-46.2467389163
114,284.670000076,+1.57112180E+00,,,-39.59599,-243.338784228,-46.2480197044
115,287.13499999,+1.57111680E+00,,,-39.60321,-245.152070099,-46.2439211823
116,289.601999998,+1.57112180E+00,,,-39.66011,-247.719474261,-46.246226601
117,292.067000151,+1.57111680E+00,,,-39.6971,-249.533483023,-46.2449458128
118,294.532000065,+1.57111800E+00,,,-39.71432,-252.106955093,-46.2423842365
119,296.996999979,+1.57112180E+00,,,-39.70645,-253.910536692,-46.2454581281
120,299.462000132,+1.57112300E+00,,,-39.73797,-256.491851041,-46.2453300493
121,301.927000046,+1.57111930E+00,,,-39.72489,-258.306725082,-46.2439211823
122,304.39199996,+1.57111800E+00,,,-39.78379,-260.104665936,-46.2446896552
123,306.858999968,+1.57112180E+00,,,-39.80074,-262.690175246,-46.243408867
124,309.32400012,+1.57112420E+00,,,-39.79633,-264.529079956,-46.2460985222
125,311.789000034,+1.57111930E+00,,,-39.80755,-267.105465498,-46.2418719212
