Counter,Time(s),Temperature Voltage(V),Magnet Current(A),Field Coil Current(mA),SQUID Voltage(uV),Mod Current(uA),Pickup Loop Current(uA),
0,0.00599980354309,+1.57113040E+00,,,-26.49098,-0.0115618838992,-45.3519211823
1,3.91599988937,+1.57112300E+00,,,-26.67743,-2.12710514786,-45.351408867
2,6.44400000572,+1.57112050E+00,,,-26.81675,-4.24685191676,-45.3492315271
3,8.97199988365,+1.57112550E+00,,,-26.7983,-6.35824216867,-45.3459014778
4,11.5,+1.57111430E+00,,,-26.81929,-8.48877447974,-45.3526896552
5,14.0279998779,+1.57111930E+00,,,-26.73741,-10.6364304491,-45.3553793103
6,16.5339999199,+1.57111430E+00,,,-26.73434,-12.7346133625,-45.357044335
7,19.0409998894,+1.57113170E+00,,,-26.6916,-14.8989211391,-45.3567881773
8,21.5479998589,+1.57112050E+00,,,-26.54495,-16.9991555312,-45.3616551724
9,24.0549998283,+1.57112050E+00,,,-26.39976,-19.0973253012,-45.3543546798
10,26.5609998703,+1.57112670E+00,,,-26.30919,-21.2126484118,-45.3581970443
11,29.0669999123,+1.57111180E+00,,,-26.29812,-23.3101084337,-45.3569162562
12,31.5729999542,+1.57112050E+00,,,-26.10444,-25.5061642935,-45.3592216749
13,34.0799999237,+1.57112300E+00,,,-25.9491,-27.6590547645,-45.3583251232
14,36.5859999657,+1.57111060E+00,,,-25.82489,-29.7801489595,-45.3560197044
15,39.0920000076,+1.57113040E+00,,,-25.71257,-31.8668729463,-45.3589655172
16,41.5979998112,+1.57111180E+00,,,-25.59369,-33.9903680175,-45.3583251232
17,44.1039998531,+1.57112790E+00,,,-25.42059,-36.0764994524,-45.3575566502
18,46.6099998951,+1.57111930E+00,,,-25.28007,-38.1939605696,-45.3546108374
19,49.1169998646,+1.57113790E+00,,,-25.18338,-40.2793231106,-45.3540985222
20,51.6229999065,+1.57111680E+00,,,-25.01015,-42.4958893757,-45.3588374384
21,54.1289999485,+1.57111430E+00,,,-24.85053,-44.5809353779,-45.3581970443
22,56.6369998455,+1.57112050E+00,,,-24.65525,-46.6988598028,-45.3534581281
23,59.1429998875,+1.57112300E+00,,,-24.42633,-48.7845815991,-45.3565320197
24,61.6489999294,+1.57113660E+00,,,-24.11726,-50.9049934283,-45.3539704433
25,64.1559998989,+1.57112180E+00,,,-23.86336,-52.9892979189,-45.3549950739
26,66.6629998684,+1.57112050E+00,,,-23.60544,-55.1555629792,-45.3551231527
27,69.1689999104,+1.57113290E+00,,,-23.29637,-57.4054687842,-45.3498719212
28,71.6759998798,+1.57111930E+00,,,-23.1413,-59.4590799562,-45.3521773399
29,74.1829998493,+1.57114280E+00,,,-23.01267,-61.5728072289,-45.3588374384
30,76.6889998913,+1.57112790E+00,,,-22.72445,-63.6930569551,-45.3520492611
31,79.1959998608,+1.57111930E+00,,,-22.47067,-65.8139288061,-45.3503842365
32,81.7029998302,+1.57112920E+00,,,-22.24051,-67.8663023001,-45.3492315271
33,84.2089998722,+1.57114410E+00,,,-21.98994,-69.9831851041,-45.3526896552
34,86.7149999142,+1.57112420E+00,,,-21.85918,-72.1017119387,-45.3516650246
35,89.2219998837,+1.57113790E+00,,,-21.66578,-74.2843504929,-45.351408867
36,91.7289998531,+1.57112920E+00,,,-21.4148,-76.4076046002,-45.352817734
37,94.2359998226,+1.57111430E+00,,,-21.22889,-78.5255531216,-45.3521773399
38,96.7429997921,+1.57113040E+00,,,-21.12364,-80.6504556407,-45.3512807882
39,99.2489998341,+1.57112670E+00,,,-21.00463,-82.7096856517,-45.3549950739
40,101.754999876,+1.57111430E+00,,,-20.97725,-84.8275498357,-45.3524334975
41,104.261999846,+1.57113040E+00,,,-21.09065,-86.9467250821,-45.3532019704
42,106.767999887,+1.57111310E+00,,,-21.09959,-88.8127064622,-45.3539704433
43,109.274999857,+1.57112920E+00,,,-21.0769,-91.4398992333,-45.3497438424
44,111.780999899,+1.57113170E+00,,,-21.16264,-93.1678926616,-45.3529458128
45,114.286999941,+1.57111560E+00,,,-21.22474,-95.8061478642,-45.3521773399
46,116.792999983,+1.57112300E+00,,,-21.38128,-97.5386341731,-45.3479507389
47,119.299999952,+1.57112670E+00,,,-21.54304,-99.3332081051,-45.3501280788
48,121.805999994,+1.57113170E+00,,,-21.63947,-101.897109529,-45.3493596059
49,124.31099987,+1.57111800E+00,,,-21.60526,-103.698240964,-45.3547389163
50,126.81799984,+1.57112420E+00,,,-21.69904,-106.326470975,-45.3470541872
51,129.324999809,+1.57111680E+00,,,-21.93732,-108.054199343,-45.3483349754
52,131.830999851,+1.57113540E+00,,,-22.20577,-109.788083242,-45.3507684729
53,134.296000004,+1.57112420E+00,,,-22.54397,-113.256845564,-45.3478226601
54,136.761999846,+1.57110440E+00,,,-22.6631,-115.064205915,-45.348591133
55,139.226999998,+1.57111800E+00,,,-22.85587,-117.648127054,-45.3479507389
56,141.691999912,+1.57113410E+00,,,-22.90784,-119.458663746,-45.3450049261
57,144.157999992,+1.57111430E+00,,,-23.1835,-122.040843373,-45.3475665025
58,146.623999834,+1.57112180E+00,,,-23.42727,-123.848915663,-45.3480788177
59,149.088999987,+1.57112050E+00,,,-23.71363,-125.660317634,-45.3483349754
60,151.554999828,+1.57111800E+00,,,-23.92466,-128.24973713,-45.348591133
61,154.019999981,+1.57114030E+00,,,-24.06864,-130.05592552,-45.3470541872
62,156.485999823,+1.57111680E+00,,,-24.26765,-132.659386637,-45.3519211823
63,158.950999975,+1.57112550E+00,,,-24.48284,-134.46543264,-45.348591133
64,161.416999817,+1.57112420E+00,,,-24.70161,-136.144370208,-45.3439704433
65,163.881999969,+1.57111180E+00,,,-25.00707,-138.862782037,-45.3483349754
66,166.346999884,+1.57113290E+00,,,-25.23267,-140.533910186,-45.3469261084
67,168.811999798,+1.57111060E+00,,,-25.49711,-143.254052574,-45.3419211823
68,171.27699995,+1.57111430E+00,,,-25.65914,-144.932409639,-45.3434581281
69,173.742999792,+1.57113540E+00,,,-25.75304,-146.741642935,-45.3419211823
70,176.207999945,+1.57113170E+00,,,-25.88941,-149.324260679,-45.3478226601
71,178.673999786,+1.57111930E+00,,,-25.96313,-151.128280394,-45.3434581281
72,181.138999939,+1.57113040E+00,,,-26.16709,-153.720744797,-45.3484630542
73,183.605000019,+1.57111310E+00,,,-26.21089,-155.528521358,-45.344226601
74,186.070999861,+1.57111060E+00,,,-26.44596,-158.244468784,-45.3398719212
75,188.536000013,+1.57112420E+00,,,-26.51836,-159.921818182,-45.344226601
76,191.000999928,+1.57112790E+00,,,-26.61679,-161.731182913,-45.3447389163
77,193.467000008,+1.57112180E+00,,,-26.88205,-164.31524644,-45.3437142857
78,195.934000015,+1.57111680E+00,,,-26.91759,-166.131423877,-45.3465418719
79,198.398000002,+1.57112790E+00,,,-26.98317,-168.715049288,-45.3452610837
80,200.862999916,+1.57110940E+00,,,-27.03619,-170.52645126,-45.3462857143
81,203.328999996,+1.57112300E+00,,,-27.08068,-172.208313253,-45.348591133
82,205.79399991,+1.57112050E+00,,,-27.05329,-174.920054765,-45.3451330049
83,208.25999999,+1.57112550E+00,,,-27.03687,-176.728849945,-45.3462857143
84,210.724999905,+1.57111930E+00,,,-27.02538,-179.312190581,-45.3494876847
85,213.189999819,+1.57113410E+00,,,-26.92253,-181.123165389,-45.3391034483
86,215.655999899,+1.57111800E+00,,,-26.72191,-183.70373494,-45.3461576355
87,218.120999813,+1.57110190E+00,,,-26.55483,-185.517305586,-45.3448768473
88,220.586999893,+1.57112550E+00,,,-26.53251,-187.19856517,-45.3466699507
89,223.051999807,+1.57111060E+00,,,-26.34352,-189.908138007,-45.3451330049
90,225.515999794,+1.57112670E+00,,,-26.29797,-191.591851041,-45.3417931034
91,227.981999874,+1.57112670E+00,,,-26.19835,-194.30143483,-45.3435862069
92,230.447999954,+1.57111930E+00,,,-26.07292,-195.984863089,-45.3467980296
93,232.912999868,+1.57111430E+00,,,-25.98157,-197.799167579,-45.3462857143
94,235.378000021,+1.57111930E+00,,,-25.81675,-200.38279299,-45.35
95,237.842999935,+1.57112300E+00,,,-25.67651,-202.195060241,-45.3469261084
96,240.307999849,+1.57111560E+00,,,-25.53545,-204.777239869,-45.3461576355
97,242.773999929,+1.57111800E+00,,,-25.36142,-206.586013143,-45.3462857143
98,245.238999844,+1.57111800E+00,,,-25.15252,-208.394819277,-45.3453891626
99,247.705999851,+1.57113410E+00,,,-24.93254,-210.979594743,-45.3444827586
100,250.169999838,+1.57111800E+00,,,-24.76666,-212.792015334,-45.3447389163
101,252.635999918,+1.57112550E+00,,,-24.40256,-215.374337349,-45.345773399
102,255.101999998,+1.57112300E+00,,,-24.18004,-217.18067908,-45.3433300493
103,257.566999912,+1.57110560E+00,,,-23.83251,-219.767798467,-45.3444827586
104,260.031999826,+1.57112670E+00,,,-23.54427,-222.089813801,-45.3435862069
105,262.497999907,+1.57111180E+00,,,-23.38066,-223.89441402,-45.3466699507
106,264.963999987,+1.57112790E+00,,,-23.12621,-226.465881709,-45.3452610837
107,267.429999828,+1.57112050E+00,,,-22.97675,-228.285684556,-45.3453891626
108,269.894999981,+1.57112790E+00,,,-22.64097,-230.860613363,-45.3391034483
109,272.360999823,+1.57111060E+00,,,-22.37809,-232.669693319,-45.3432019704
110,274.825999975,+1.57112050E+00,,,-22.04498,-234.475596933,-45.3482068966
111,277.290999889,+1.57111800E+00,,,-21.78719,-237.05516977,-45.3411527094
112,279.755999804,+1.57111180E+00,,,-21.67953,-238.859912377,-45.345773399
113,282.220999956,+1.57112790E+00,,,-21.47639,-241.442387733,-45.3447389163
114,284.686999798,+1.57113410E+00,,,-21.39984,-243.245115005,-45.3451330049
115,287.152999878,+1.57111930E+00,,,-21.28364,-245.056078861,-45.3426896552
116,289.617999792,+1.57110440E+00,,,-21.1669,-247.625947426,-45.3452610837
117,292.083999872,+1.57112050E+00,,,-20.99354,-249.444162103,-45.3450049261
118,294.548999786,+1.57112670E+00,,,-20.91194,-252.016177437,-45.3464137931
119,297.013999939,+1.57113040E+00,,,-20.87467,-253.824983571,-45.3452610837
120,299.480000019,+1.57111180E+00,,,-20.80522,-256.407447974,-45.3450049261
121,301.945999861,+1.57112420E+00,,,-20.8322,-258.224063527,-45.3473103448
122,304.411000013,+1.57110940E+00,,,-20.96002,-260.019978094,-45.3446108374
123,306.876999855,+1.57112670E+00,,,-21.05993,-262.616199343,-45.3443546798
124,309.342000008,+1.57110810E+00,,,-21.12818,-264.444961665,-45.3437142857
125,311.806999922,+1.57112300E+00,,,-21.25814,-267.025980285,-45.3429458128
