Counter,Time(s),Temperature Voltage(V),Magnet Current(A),Field Coil Current(mA),SQUID Voltage(uV),Mod Current(uA),Pickup Loop Current(uA),
0,0.00699996948242,+1.57114280E+00,,,-39.09448,-0.0116066812705,-45.4107192118
1,3.91599988937,+1.57115650E+00,,,-39.1268,-2.12658028478,-45.4099507389
2,6.44400000572,+1.57115520E+00,,,-39.19264,-4.25724118291,-45.4108472906
3,8.97199988365,+1.57114410E+00,,,-39.14457,-6.37239956188,-45.410591133
4,11.5,+1.57115400E+00,,,-39.21201,-8.50022464403,-45.4102068966
5,14.0269999504,+1.57114410E+00,,,-39.22924,-10.6495071194,-45.4113596059
6,16.5350000858,+1.57115520E+00,,,-39.22696,-12.7495279299,-45.4079014778
7,19.0409998894,+1.57114160E+00,,,-39.20586,-14.8599934283,-45.4100788177
8,21.5469999313,+1.57114160E+00,,,-39.21696,-16.9575531216,-45.4089261084
9,24.0529999733,+1.57115400E+00,,,-39.2259,-19.0525104053,-45.4054679803
10,26.5590000153,+1.57114160E+00,,,-39.24981,-21.1649408543,-45.4050837438
11,29.0650000572,+1.57115270E+00,,,-39.24407,-23.2596089814,-45.4066206897
12,31.5720000267,+1.57115150E+00,,,-39.26731,-25.4532048193,-45.4082857143
13,34.0789999962,+1.57114650E+00,,,-39.30538,-27.6541369113,-45.4068768473
14,36.5850000381,+1.57114650E+00,,,-39.41276,-29.7732201533,-45.4071330049
15,39.0910000801,+1.57114160E+00,,,-39.47915,-31.8593077766,-45.4103349754
16,41.5969998837,+1.57115650E+00,,,-39.5343,-33.9818192771,-45.4044433498
17,44.1029999256,+1.57114530E+00,,,-39.56582,-36.0673723987,-45.4026502463
18,46.6089999676,+1.57115770E+00,,,-39.56823,-38.184456736,-45.4057241379
19,49.1159999371,+1.57114530E+00,,,-39.58345,-40.2689222344,-45.4055960591
20,51.621999979,+1.57115890E+00,,,-39.55194,-42.4843899233,-45.4068768473
21,54.1289999485,+1.57115150E+00,,,-39.57891,-44.568856517,-45.4045714286
22,56.6349999905,+1.57115520E+00,,,-39.55982,-46.6857973713,-45.4086699507
23,59.1419999599,+1.57114030E+00,,,-39.49691,-48.7716637459,-45.4073891626
24,61.6480000019,+1.57115030E+00,,,-39.44788,-50.8906286966,-45.4017536946
25,64.1530001163,+1.57115270E+00,,,-39.43372,-52.9746878423,-45.4089261084
26,66.6600000858,+1.57115890E+00,,,-39.40928,-55.1788532311,-45.4039310345
27,69.1670000553,+1.57114030E+00,,,-39.39754,-57.4252146769,-45.4036748768
28,71.6730000973,+1.57115520E+00,,,-39.41529,-59.4815881709,-45.4050837438
29,74.1800000668,+1.57115150E+00,,,-39.40903,-61.5964435926,-45.4079014778
30,76.6860001087,+1.57114160E+00,,,-39.45096,-63.7184874042,-45.4076453202
31,79.1919999123,+1.57115400E+00,,,-39.52201,-65.8424403067,-45.4079014778
32,81.6979999542,+1.57113910E+00,,,-39.51266,-67.8980405257,-45.4032906404
33,84.2030000687,+1.57115400E+00,,,-39.46406,-70.0183756846,-45.4116157635
34,86.7100000381,+1.57114780E+00,,,-39.46031,-72.1403932092,-45.4145615764
35,89.2170000076,+1.57114280E+00,,,-39.41382,-74.3267918949,-45.4048275862
36,91.7230000496,+1.57114530E+00,,,-39.39032,-76.4582924425,-45.4055960591
37,94.2290000916,+1.57115520E+00,,,-39.37349,-78.5826484118,-45.4073891626
38,96.7349998951,+1.57115650E+00,,,-39.27919,-80.7068280394,-45.4098226601
39,99.2400000095,+1.57114160E+00,,,-39.25823,-82.7679967141,-45.4048275862
40,101.746999979,+1.57116140E+00,,,-39.26557,-84.8904468784,-45.4095665025
41,104.253999949,+1.57114030E+00,,,-39.21627,-87.0105618839,-45.4079014778
42,106.75999999,+1.57116140E+00,,,-39.1873,-88.8774841183,-45.409182266
43,109.266000032,+1.57113910E+00,,,-39.15084,-91.5107809419,-45.4066206897
44,111.772000074,+1.57116020E+00,,,-39.1121,-93.2459638554,-45.4076453202
45,114.279000044,+1.57114030E+00,,,-39.06723,-95.8820788609,-45.4048275862
46,116.785000086,+1.57115400E+00,,,-39.03958,-97.6137437021,-45.4075172414
47,119.292000055,+1.57114650E+00,,,-39.10555,-99.4139123768,-45.4102068966
48,121.799999952,+1.57113790E+00,,,-39.08471,-101.984424973,-45.4084137931
49,124.305000067,+1.57115770E+00,,,-39.089,-103.779957284,-45.4071330049
50,126.811000109,+1.57114530E+00,,,-39.00125,-106.414162103,-45.4087980296
51,129.316999912,+1.57115030E+00,,,-38.98896,-108.148457831,-45.4095665025
52,131.822999954,+1.57116140E+00,,,-38.9784,-109.883778751,-45.4084137931
53,134.289000034,+1.57115030E+00,,,-38.91829,-113.254819277,-45.407773399
54,136.755000114,+1.57114410E+00,,,-38.8582,-115.06305586,-45.4079014778
55,139.220999956,+1.57116390E+00,,,-38.81305,-117.64407448,-45.4076453202
56,141.686000109,+1.57113790E+00,,,-38.8351,-119.458806134,-45.4067487685
57,144.151000023,+1.57116140E+00,,,-38.76778,-122.042289157,-45.4107192118
58,146.617000103,+1.57114900E+00,,,-38.66439,-123.850065717,-45.4050837438
59,149.082000017,+1.57114160E+00,,,-38.61511,-125.662059146,-45.4084137931
60,151.548000097,+1.57115770E+00,,,-38.56583,-128.246549836,-45.4067487685
61,154.013000011,+1.57114780E+00,,,-38.57544,-130.053318729,-45.4084137931
62,156.479000092,+1.57113790E+00,,,-38.51,-132.658083242,-45.4093103448
63,158.944000006,+1.57115400E+00,,,-38.48434,-134.462245345,-45.4130246305
64,161.40899992,+1.57114780E+00,,,-38.4034,-136.142924425,-45.4081576355
65,163.874000072,+1.57116760E+00,,,-38.35226,-138.861336254,-45.4062364532
66,166.338999987,+1.57114900E+00,,,-38.33755,-140.530142388,-45.4094384236
67,168.803999901,+1.57115270E+00,,,-38.41556,-143.250284775,-45.4102068966
68,171.269000053,+1.57115030E+00,,,-38.39058,-144.926911281,-45.407773399
69,173.736000061,+1.57116760E+00,,,-38.33929,-146.73584885,-45.4076453202
70,176.200999975,+1.57115770E+00,,,-38.325,-149.322234392,-45.4040591133
71,178.665999889,+1.57114780E+00,,,-38.31232,-151.130021906,-45.406364532
72,181.131000042,+1.57115150E+00,,,-38.24954,-153.71871851,-45.4068768473
73,183.596999884,+1.57115520E+00,,,-38.25088,-155.526210296,-45.4058522167
74,186.062000036,+1.57116390E+00,,,-38.17755,-158.242442497,-45.404955665
75,188.52699995,+1.57116020E+00,,,-38.14776,-159.918630887,-45.403546798
76,190.993000031,+1.57113790E+00,,,-38.17314,-161.73060241,-45.4017536946
77,193.459000111,+1.57116140E+00,,,-38.23325,-164.313362541,-45.4030344828
78,195.924000025,+1.57115030E+00,,,-38.22724,-166.131139102,-45.4009852217
79,198.388999939,+1.57114030E+00,,,-38.23098,-168.715629792,-45.4027783251
80,200.854000092,+1.57115890E+00,,,-38.22843,-170.523844469,-45.39791133
81,203.319999933,+1.57114900E+00,,,-38.22818,-172.20483023,-45.4014975369
82,205.786000013,+1.57116140E+00,,,-38.22217,-174.913691128,-45.3997044335
83,208.253000021,+1.57115770E+00,,,-38.20519,-176.722048193,-45.399320197
84,210.717999935,+1.57114530E+00,,,-38.27986,-179.30958379,-45.3994482759
85,213.183000088,+1.57114900E+00,,,-38.25848,-181.119978094,-45.3994482759
86,215.648000002,+1.57114530E+00,,,-38.27518,-183.697075575,-45.3989359606
87,218.112999916,+1.57115520E+00,,,-38.25207,-185.511084337,-45.3976551724
88,220.578999996,+1.57114780E+00,,,-38.26543,-187.193932092,-45.3959901478
89,223.04399991,+1.57115650E+00,,,-38.28788,-189.903800657,-45.3973990148
90,225.50999999,+1.57114900E+00,,,-38.30671,-191.586067908,-45.3950935961
91,227.974999905,+1.57114780E+00,,,-38.36588,-194.29592552,-45.3965024631
92,230.440999985,+1.57114030E+00,,,-38.43211,-195.981686747,-45.3981674877
93,232.907000065,+1.57116140E+00,,,-38.39326,-197.794819277,-45.3976551724
94,235.371999979,+1.57114780E+00,,,-38.44362,-200.376133625,-45.3959901478
95,237.836999893,+1.57115650E+00,,,-38.43226,-202.188696605,-45.4002167488
96,240.302999973,+1.57114780E+00,,,-38.48408,-204.771445783,-45.399320197
97,242.769000053,+1.57115270E+00,,,-38.53097,-206.577907996,-45.395862069
98,245.233999968,+1.57114030E+00,,,-38.51187,-208.3883023,-45.4004729064
99,247.698999882,+1.57116270E+00,,,-38.52348,-210.974534502,-45.4016256158
100,250.164000034,+1.57114160E+00,,,-38.55314,-212.783329682,-45.3952216749
101,252.628999949,+1.57115400E+00,,,-38.59855,-215.372891566,-45.3971428571
102,255.094000101,+1.57114900E+00,,,-38.57597,-217.175465498,-45.3997044335
103,257.559999943,+1.57114780E+00,,,-38.55513,-219.767075575,-45.400729064
104,260.025000095,+1.57116510E+00,,,-38.47607,-222.101401972,-45.3961182266
105,262.490999937,+1.57114280E+00,,,-38.4933,-223.907152245,-45.3985517241
106,264.954999924,+1.57113790E+00,,,-38.59773,-226.481084337,-45.3970147783
107,267.421000004,+1.57115890E+00,,,-38.60603,-228.295531216,-45.398679803
108,269.885999918,+1.57114780E+00,,,-38.55955,-230.869145674,-45.3980394089
109,272.351000071,+1.57114530E+00,,,-38.55901,-232.669989047,-45.3950935961
110,274.815999985,+1.57114900E+00,,,-38.55219,-234.475596933,-45.394453202
111,277.280999899,+1.57114280E+00,,,-38.50105,-237.060963855,-45.3976551724
112,279.746999979,+1.57115270E+00,,,-38.43493,-238.866286966,-45.3927881773
113,282.211999893,+1.57114650E+00,,,-38.42184,-241.451369113,-45.3938128079
114,284.677000046,+1.57115770E+00,,,-38.40742,-243.257853231,-45.3933004926
115,287.142999887,+1.57114530E+00,,,-38.42772,-245.069112815,-45.3936847291
116,289.608999968,+1.57116140E+00,,,-38.49049,-247.633187295,-45.3912512315
117,292.073999882,+1.57114530E+00,,,-38.48943,-249.445323111,-45.393044335
118,294.539000034,+1.57115520E+00,,,-38.45749,-252.022694414,-45.3947093596
119,297.005000114,+1.57114030E+00,,,-38.37069,-253.836276013,-45.3950935961
120,299.470000029,+1.57113540E+00,,,-38.26651,-256.4183023,-45.3953497537
121,301.934999943,+1.57115520E+00,,,-38.19959,-258.235355969,-45.3917635468
122,304.400000095,+1.57114650E+00,,,-38.17006,-260.030251917,-45.3938128079
123,306.86500001,+1.57115650E+00,,,-38.21682,-262.621117196,-45.3917635468
124,309.329999924,+1.57115270E+00,,,-38.18796,-264.447272727,-45.3953497537
125,311.795000076,+1.57113540E+00,,,-38.14696,-267.033220153,-45.3921477833
