Counter,Time(s),Temperature Voltage(V),Magnet Current(A),Field Coil Current(mA),SQUID Voltage(uV),Mod Current(uA),Pickup Loop Current(uA),
0,0.00599980354309,+1.57082550E+00,,,-37.78807,0.0065704271632,-54.6570541872
1,3.91599988937,+1.57082180E+00,,,-37.52081,2.16735399781,-54.6606403941
2,6.44299983978,+1.57082050E+00,,,-37.25262,4.33171128149,-54.6606403941
3,8.96999979019,+1.57082550E+00,,,-36.97346,6.47006002191,-54.6542364532
4,11.4979999065,+1.57081810E+00,,,-36.77258,8.67711423877,-54.6587192118
5,14.0259997845,+1.57079950E+00,,,-33.91001,10.8349396495,-54.6567980296
6,16.5529999733,+1.57081560E+00,,,-34.12091,12.9833975904,-54.6575665025
7,19.0589997768,+1.57082430E+00,,,-34.37881,15.1734874042,-54.6591034483
8,21.5649998188,+1.57082300E+00,,,-34.67934,17.3296659365,-54.6594876847
9,24.0709998608,+1.57082050E+00,,,-34.90573,19.4825290252,-54.6601280788
10,26.5759999752,+1.57082300E+00,,,-35.18128,21.6370898138,-54.6591034483
11,29.0819997787,+1.57082050E+00,,,-35.38685,23.7730175246,-54.6578226601
12,31.5869998932,+1.57082300E+00,,,-35.70124,25.9750547645,-54.6601280788
13,34.0929999352,+1.57082050E+00,,,-35.88571,28.2095947426,-54.6547487685
14,36.5979998112,+1.57081930E+00,,,-36.17072,30.363128149,-54.6551330049
15,39.1039998531,+1.57082050E+00,,,-36.45056,32.5173713034,-54.6537241379
16,41.6099998951,+1.57082300E+00,,,-36.63875,34.6730722892,-54.6562857143
17,44.1169998646,+1.57082430E+00,,,-36.83495,36.8256801752,-54.6547487685
18,46.621999979,+1.57082300E+00,,,-37.17074,38.9457228916,-54.6589753695
19,49.1289999485,+1.57081810E+00,,,-37.37215,41.1003723987,-54.6567980296
20,51.6339998245,+1.57082180E+00,,,-37.51667,43.3182935378,-54.6547487685
21,54.1399998665,+1.57082430E+00,,,-37.68951,45.3766856517,-54.6519310345
22,56.646999836,+1.57082430E+00,,,-37.91309,47.5622486309,-54.6503940887
23,59.1519999504,+1.57082670E+00,,,-38.1503,49.7839288061,-54.6570541872
24,61.6579999924,+1.57082180E+00,,,-38.37175,51.9711982475,-54.6542364532
25,64.1629998684,+1.57081930E+00,,,-38.58893,54.1591467689,-54.6491133005
26,66.6679999828,+1.57082180E+00,,,-38.6879,56.7663384447,-54.6496256158
27,69.1729998589,+1.57082180E+00,,,-38.85311,58.9667119387,-54.6506502463
28,71.6789999008,+1.57082050E+00,,,-38.94662,61.1683044907,-54.650137931
29,74.1849999428,+1.57081680E+00,,,-39.04466,62.9804326396,-54.6537241379
30,76.6909999847,+1.57081930E+00,,,-39.07002,65.184713034,-54.6523152709
31,79.1959998608,+1.57082430E+00,,,-39.00791,67.3937973713,-54.6488571429
32,81.7019999027,+1.57082300E+00,,,-39.13401,69.598075575,-54.6471921182
33,84.2069997787,+1.57082300E+00,,,-39.06937,71.7980613363,-54.6461674877
34,86.7129998207,+1.57082430E+00,,,-39.05253,74.0022562979,-54.6502660099
35,89.2199997902,+1.57082050E+00,,,-39.0333,76.2017338445,-54.6516748768
36,91.7259998322,+1.57082300E+00,,,-39.03423,78.4032825849,-54.6486009852
37,94.2319998741,+1.57082180E+00,,,-39.00057,80.6042508215,-54.6468078818
38,96.7369999886,+1.57081560E+00,,,-38.74,82.8096013143,-54.6470640394
39,99.2429997921,+1.57082300E+00,,,-38.66706,85.0111642935,-54.6445024631
40,101.748999834,+1.57082180E+00,,,-38.45269,87.2137196057,-54.6432216749
41,104.254999876,+1.57081810E+00,,,-38.28147,88.9598159912,-54.6460394089
42,106.761999846,+1.57082180E+00,,,-38.12332,91.1608148959,-54.6450147783
43,109.26699996,+1.57082050E+00,,,-37.87127,93.3612048193,-54.6414285714
44,111.773000002,+1.57082300E+00,,,-37.72236,95.5642836802,-54.6413004926
45,114.277999878,+1.57082050E+00,,,-37.63728,97.7661796276,-54.6450147783
46,116.782999992,+1.57082300E+00,,,-37.38017,100.036191676,-54.6445024631
47,119.287999868,+1.57082800E+00,,,-37.12692,102.235814896,-54.6445024631
48,121.79399991,+1.57081680E+00,,,-36.90709,104.436391019,-54.6455270936
49,124.303999901,+1.57082050E+00,,,-36.74025,106.637070099,-54.6448866995
50,126.808999777,+1.57082050E+00,,,-36.49944,108.838661555,-54.6433497537
51,129.314999819,+1.57082430E+00,,,-36.17554,111.313001095,-54.6416847291
52,131.779999971,+1.57081930E+00,,,-35.91348,113.122092004,-54.6442463054
53,134.244999886,+1.57082300E+00,,,-35.66545,115.317316539,-54.6411724138
54,136.7099998,+1.57082670E+00,,,-35.39739,117.51483023,-54.6393793103
55,139.173999786,+1.57082670E+00,,,-35.22363,119.714950712,-54.6406600985
56,141.638999939,+1.57082800E+00,,,-34.95783,121.911883899,-54.6409162562
57,144.104999781,+1.57082300E+00,,,-34.60989,124.107667032,-54.6392512315
58,146.569999933,+1.57081930E+00,,,-34.33435,126.309813801,-54.6373300493
59,149.034999847,+1.57081930E+00,,,-34.02635,128.508773275,-54.638226601
60,151.498999834,+1.57082180E+00,,,-33.80503,130.712223439,-54.6441182266
61,153.963999987,+1.57081810E+00,,,-33.60735,132.922332968,-54.6406600985
62,156.428999901,+1.57082430E+00,,,-33.29936,135.121150055,-54.6388669951
63,158.893999815,+1.57082050E+00,,,-33.13133,137.318817087,-54.6373300493
64,161.358999968,+1.57082050E+00,,,-32.98024,139.129375685,-54.6406600985
65,163.823999882,+1.57082180E+00,,,-32.89703,141.330372399,-54.6393793103
66,166.287999868,+1.57082430E+00,,,-32.80435,143.523253012,-54.6351527094
67,168.752999783,+1.57082430E+00,,,-32.73274,145.729452355,-54.6398916256
68,171.216999769,+1.57082180E+00,,,-32.46415,147.924939759,-54.6370738916
69,173.680999994,+1.57082430E+00,,,-32.54215,150.122782037,-54.6393793103
70,176.145999908,+1.57082300E+00,,,-32.52024,152.318992333,-54.6370738916
71,178.610999823,+1.57081680E+00,,,-32.38387,154.519693319,-54.6405320197
72,181.076999903,+1.57082050E+00,,,-32.40163,156.718357065,-54.6398916256
73,183.541999817,+1.57082180E+00,,,-32.61012,158.919638554,-54.6322068966
74,186.006999969,+1.57082430E+00,,,-32.64165,161.11890471,-54.6370738916
75,188.470999956,+1.57082430E+00,,,-32.81742,162.929003286,-54.639635468
76,190.93599987,+1.57082430E+00,,,-33.02873,165.137951807,-54.6380985222
77,193.400999784,+1.57082430E+00,,,-33.17978,167.328521358,-54.638226601
78,195.866999865,+1.57082180E+00,,,-33.3366,169.532979189,-54.6355369458
79,198.331999779,+1.57082670E+00,,,-33.48487,171.726440307,-54.6334876847
80,200.794999838,+1.57082180E+00,,,-33.63486,173.927163198,-54.6336157635
81,203.260999918,+1.57081930E+00,,,-33.85391,176.123088719,-54.6365615764
82,205.724999905,+1.57081810E+00,,,-33.94341,178.330449069,-54.634
83,208.189999819,+1.57082300E+00,,,-34.20024,180.525794085,-54.6345123153
84,210.654999971,+1.57082050E+00,,,-34.32887,182.724457831,-54.6315665025
85,213.120999813,+1.57082670E+00,,,-34.57824,184.919813801,-54.6334876847
86,215.585999966,+1.57081930E+00,,,-34.85111,187.124863089,-54.631182266
87,218.051999807,+1.57082300E+00,,,-35.12544,188.93177437,-54.6332315271
88,220.51699996,+1.57082050E+00,,,-35.42611,191.131610077,-54.6352807882
89,222.981999874,+1.57082800E+00,,,-35.78232,193.329989047,-54.6309261084
90,225.446999788,+1.57081930E+00,,,-36.14094,195.528554217,-54.6291330049
91,227.911999941,+1.57081930E+00,,,-36.49182,197.730985761,-54.631182266
92,230.378999949,+1.57081930E+00,,,-36.72864,199.930821468,-54.6334876847
93,232.842999935,+1.57081930E+00,,,-36.97012,202.131522453,-54.6316945813
94,235.307999849,+1.57081680E+00,,,-37.24031,204.326429354,-54.6322068966
95,237.773000002,+1.57082050E+00,,,-37.37777,206.52422782,-54.6301576355
96,240.237999916,+1.57081560E+00,,,-37.65304,208.719594743,-54.6328472906
97,242.70299983,+1.57081680E+00,,,-37.83989,210.928116101,-54.6322068966
98,245.166999817,+1.57082300E+00,,,-37.97465,212.738937568,-54.6307980296
99,247.632999897,+1.57082300E+00,,,-38.07605,214.932836802,-54.6270837438
100,250.097999811,+1.57082180E+00,,,-38.15685,217.133526835,-54.6286206897
101,252.562999964,+1.57082550E+00,,,-38.25167,219.326593647,-54.6287487685
